# Eot-Wash EP limit
# 1207.2442
# mass [eV] 	g_B-L
6.6086388743203215e-6 3.6524431991561864e-21
5.311782321026281e-6 2.699122865579241e-21
4.258584102202104e-6 1.9064742047584024e-21
3.6124004084493164e-6 1.4075086598726256e-21
2.843141040894642e-6 1.0461296679625029e-21
1.9564188350710655e-6 7.531030553241541e-22
1.568240494779187e-6 6.281866600429002e-22
1.299988831198537e-6 5.61013543940094e-22
1.073903817077052e-6 5.10309948748322e-22
8.90082442982782e-7 4.678434101686882e-22
6.292939565037503e-7 4.258318720499923e-22
3.936221162194773e-7 4.007036181231424e-22
2.2352749133730498e-7 3.833841433911945e-22
1.1903512189287809e-7 3.8024588479384106e-22
6.982272167568113e-8 3.8024588479384106e-22
5.105899285327587e-8 3.247223645678753e-22
3.5035159989747805e-8 2.8544689355300933e-22
2.1882425508546803e-8 2.359617585754658e-22
1.326163102967635e-8 2.0203922095202986e-22
4.277019531215965e-9 1.3788394918353638e-22
2.012202671508937e-9 1.1019122956246485e-22
1.2585879130075008e-9 9.584603584779862e-23
5.550514110735326e-10 8.068708753442448e-23
2.7830746808757413e-10 7.205795181071954e-23
1.3915373404378707e-10 6.166357667610279e-23
7.688649896582787e-11 5.280048948324155e-23
3.612400408449317e-11 4.513311673235714e-23
1.0291578246988417e-11 3.760207993818771e-23
7.718683685241312e-12 3.4730713769106724e-23
5.5349664521618375e-12 3.0044463751237494e-23
3.69342621200332e-12 2.554678561279717e-23
2.5863652139028483e-12 2.4247342238175298e-23
1.991918370384855e-12 2.3460369400982023e-23
1.4318717561027362e-12 2.455832322158436e-23
9.320674638781962e-13 2.6210449004090366e-23
6.675618322370866e-13 2.8404419762661364e-23
4.574034776439297e-13 2.654358188598103e-23
3.276920436852033e-13 2.1819679394870065e-23
2.40680027213371e-13 1.9273106072402586e-23
1.8945187185251927e-13 1.7808219029015024e-23
1.496956835925588e-13 1.4075086598726254e-23
1.155545627732033e-13 1.1127332979021844e-23
5.661842473987896e-14 6.055243022999024e-24
4.1512248391213784e-14 5.071695500093139e-24
3.1973835330449446e-14 4.539782936427759e-24
2.0370959004348208e-14 4.036828681999349e-24
1.0238254007366716e-14 3.749570891903092e-24
4.9031836809473354e-15 3.608436252668981e-24
2.1361978631586766e-15 3.652443199156187e-24
2.0777949773099642e-24 3.563885948804933e-24