# Sun
# https://arxiv.org/pdf/1611.05852.pdf
# mass [eV] g_B-L
1e-30	8.212968325011523e-11
0.00024822125282087233	8.212968325011523e-11
0.0002936640450678638	8.212968325011523e-11
0.00034742621909113474	8.212968325011523e-11
0.00041103083519831995	8.212968325011523e-11
0.0004862797860385767	8.212968325011523e-11
0.0005753048434812177	8.212968325011523e-11
0.0006806280508371616	8.212968325011523e-11
0.0008052331713100169	8.212968325011523e-11
0.0009526502167820805	8.212968325011523e-11
0.0011270554516010368	8.212968325011523e-11
0.0013333897044335498	8.212968325011523e-11
0.0015774983399119862	8.212968325011523e-11
0.0018662968554135015	8.212968325011523e-11
0.0022079667942602435	8.212968325011523e-11
0.0026121875254811588	8.212968325011523e-11
0.003090410456360836	8.137111650722931e-11
0.003656183446104309	8.047007899934084e-11
0.004325534611123634	7.987493714804918e-11
0.005117426394992412	7.884401056850624e-11
0.006054292766683515	7.710756927460565e-11
0.007162674765695516	7.512999653771978e-11
0.00847397239880012	7.279671823730654e-11
0.010025334189336666	6.949642063805339e-11
0.013970954382786224	6.289506065363807e-11
0.02294906561033273	4.716806740003819e-11
0.03252232252871577	3.6567497308228834e-11
0.04552030667723725	2.742642368401287e-11
0.053853879309898975	2.3642381209699416e-11
0.06371311022329844	2.0192187842088878e-11
0.07537730737960076	1.7054527528553966e-11
0.08917691269325514	1.4619879853960254e-11
0.10550286331470381	1.2348099442389201e-11
0.12481766671928027	1.046811251959975e-11
0.1476685033540131	8.890836433706063e-12
0.1747027280349398	7.509291013748048e-12
0.2066862092431486	6.3660082785278e-12
0.2445250258642724	5.386783092327043e-12
0.2892911360311532	4.558183215321086e-12
0.34225274525744587	3.857039325386956e-12
0.40491023417891336	3.2637460266137024e-12
0.4790386637205679	2.766843658928165e-12
0.5667380618435786	2.336904337331763e-12
0.6704929164748445	1.9811127748738233e-12
0.7932425600294744	1.6763762051141071e-12
0.9384644394907963	1.415884418365912e-12
1.1102726310550581	1.1980917887380909e-12
1.313534390220239	1.0100443225641479e-12
1.5540080391351139	8.562659920026248e-13
1.8385060975005392	7.25900272573109e-13
2.17508827845438	6.108313592610602e-13
2.5732898169342415	5.159143879450017e-13
3.044391598966696	4.3252384611594073e-13
3.6017397445349006	3.639606414519039e-13
4.261123697675872	3.062660006277958e-13
5.041223534944658	2.464902602652992e-13
5.918737099009936	1.846330839424821e-13
6.84360140459246	1.195280084726573e-13
7.912985388855056	7.535366966702064e-14
9.21965647789474	4.789447516053731e-14
10.82449973852269	3.187400883513242e-14
12.806181352023664	2.278947907370593e-14
15.331827085509184	1.7098601090742932e-14
19.645717740864413	1.153060727190552e-14
23.24233269504559	9.010463178234709e-15
27.497393387848604	7.184858499787992e-15
32.53144394096363	5.825632625064759e-15
38.487096938858535	4.785306834261002e-15
45.533073584720114	3.894454313538843e-15
53.868983502839015	3.1753339837683293e-15
63.73097959727771	2.5986282687065767e-15
75.39844816664436	2.1109357130260577e-15
89.2019238031764	1.7339704963144611e-15
105.53245330197382	1.4059393228867744e-15
124.8526738560845	1.152729213592786e-15
147.70991937815828	9.381323734723319e-16
174.75172624537862	7.691744412541626e-16
206.74417773905708	6.38891909197906e-16
244.5936068693295	7.032605205639366e-16
277.3807501911015	9.755546131336054e-16
281.85302276740464	3.040674313375816e-15
282.09443505566526	1.921493690929147e-15
286.0145900194698	4.7499155881760555e-15
299.7147209655057	9.157544957686882e-15
337.15630887814916	1.4383106834260646e-14
398.8807741485294	1.8789405686553362e-14
475.16206862757724	2.5456736138934397e-14
552.4227834486692	2.9315610754397305e-14
660.5087029398641	3.333950777995073e-14
781.4304992160567	3.747447706143879e-14
924.4899005678175	4.212229047583053e-14
1093.7397210747763	4.734655408323205e-14
1293.974738633692	5.381466252311487e-14
1530.867529046848	6.395231286294093e-14
1811.1291677645595	7.614087520692836e-14
2142.6993518961526	9.065243488068603e-14
2534.9713285678954	1.1138908849665227e-13
2999.058001755874	1.3814516819096188e-13
3548.106756291084	1.758378612822494e-13
4197.671917871497	2.437608277668709e-13
4966.1554007202485	3.4425097967783776e-13
5875.3280262571225	5.064282153142119e-13
6950.946281527156	7.519526188283561e-13
8098.755875657294	1.1239027803895042e-12
9292.98521700542	1.7892463922056453e-12
10663.313670566959	2.8875002792507945e-12
12355.290091401836	4.516082892291811e-12
13617.305658294692	7.1257429827385206e-12
14811.433485206791	1.1834319792263059e-11
16110.276687009251	1.987616502592098e-11
17657.43534925171	3.350790450399193e-11
19353.176185013315	5.5820056801171955e-11
21179.374612398205	9.455263085725502e-11
22514.529847952886	1.5183025657646736e-10
23705.501593260575	2.5194676384146945e-10
25199.904763463892	4.299613905106394e-10
26183.398518008078	6.925886480036814e-10
27857.652248681254	1.1570435986586922e-9
29488.35392489793	2.0203803661869433e-9
30786.79053733039	3.2219096235316448e-9
31803.064628342618	5.258848249119463e-9
33318.31165735281	9.087651028909363e-9
34886.89706286976	1.5595174535084872e-8
35814.58836064241	2.8033556715363967e-8
37054.70393393835	5.90421073176852e-8
38269.89349389316	1.1396321523488127e-7
37341.5648210007	1.301025216910833e-7
29190.440024681284	0.000008767123872968704
21721.929294551413	0.0002511886431509587
17837.619614331525	0.001000000000000002


