# PandaX (CBRD and 57-Fe Solar axions)
# m_a [eV]  g_ae [dimensionless]
1e-10	 4.378521739076898e-12
85.74488223496897	 4.378521739076898e-12
109.95355230614666	 4.418403305111005e-12
133.38971497723327	 3.630417118108259e-12
152.3466233439649	 3.0689481682656067e-12
180.73074217278744	 2.5582657209959944e-12
226.96782590878473	 2.071587849718439e-12
271.10121551599	 1.7722436567543055e-12
319.4204344432539	 1.4469077282284906e-12
401.1390684552883	 1.171122669247476e-12
479.85988741501023	 1.0022873265025221e-12
564.5382335804937	 8.183442231295101e-13
728.0609252830052	 6.678405749924126e-13
853.4631143773748	 5.660836095663967e-13
997.7552554822626	 4.628403418297933e-13
1253.0150565605904	 3.7727039861610063e-13
1456.3024660044207	 2.9820055468209026e-13
1845.615127239294	 2.54592859234043e-13
2371.191520810344	 2.0345739343181704e-13
2718.4790638066856	 1.7431185109933328e-13
3188.4424207151733	 1.486575409664183e-13
4004.1546643636198	 1.2165630143603562e-13
4947.394243107533	 1.0101269452119087e-13
6243.509287628843	 8.287675172184847e-14
7930.629131492211	 6.968223223342738e-14
10329.256665207606	 6.446107939145383e-14
12622.03740319229	 6.85639585482272e-14
13519.917129026384	 8.746395237932131e-14
14016.458805706083	 1.3058607678855336e-13
14177.018897207476	 1.5549760391289587e-13
