# Magnetic White Dwarf Polarization (Lick data for J033320+000720)
# https://arxiv.org/pdf/2504.12377
# mass [eV]  photon coupling [GeV^-1]
9.999999999999999395e-12 1.680913794659135433e-12
9.999999999999999547e-08 1.708205137825536030e-12
1.692307692307692272e-07 1.785277272116277823e-12
2.384615384615384589e-07 1.919779903623482109e-12
3.076923076923076906e-07 2.107518422471735170e-12
3.769230769230769223e-07 2.351183059821167342e-12
4.461538461538461540e-07 2.634014155607430285e-12
5.153846153846153857e-07 2.966570199114938216e-12
5.846153846153845645e-07 3.375592413615642421e-12
6.538461538461538491e-07 3.841758330707871992e-12
7.230769230769231338e-07 4.390672862644113550e-12
7.923076923076923126e-07 5.007583700454362141e-12
8.615384615384614913e-07 5.720936094760296128e-12
9.307692307692307760e-07 6.522100972242937553e-12
9.999999999999999547e-07 7.402653110630836313e-12
