# NuSTAR decaying ALP dark matter
# Combined (and recast) limits on sterile neutrinos from
# https://arxiv.org/abs/1609.00667
# https://arxiv.org/pdf/2207.04572.pdf
# https://arxiv.org/pdf/1901.01262.pdf
# mass [eV]	g_agamma [GeV^-1]
6.071715731969380613e+03 6.057959198495081124e-18
6.073834883257557522e+03 6.034970963399535041e-18
6.075954774172280850e+03 6.011974704946229757e-18
6.078075404971709759e+03 5.988970420334692881e-18
6.080196775914064347e+03 5.965958106763791812e-18
6.082318887257683855e+03 5.942937761431100496e-18
6.084441739260970280e+03 5.919909381533514181e-18
6.086565332182440216e+03 5.896872964266682423e-18
6.088689666280683014e+03 5.873828506825467457e-18
6.090814741814379886e+03 5.850776006403733117e-18
6.092940559042317545e+03 5.827715460194201547e-18
6.095067118223349098e+03 5.804646865388873049e-18
6.097194419616445884e+03 5.788617908806346452e-18
6.099322463480641090e+03 5.776373991869798365e-18
6.101451250075084317e+03 5.764125801559183169e-18
6.103580779658997926e+03 5.751873336383039142e-18
6.105711052491693408e+03 5.739616594849389959e-18
6.107842068832592304e+03 5.727355575465628356e-18
6.109973828941181637e+03 5.715090276738768818e-18
6.112106333077063937e+03 5.702820697175161769e-18
6.114239581499906308e+03 5.690546835280787085e-18
6.116373574469493178e+03 5.678268689560947484e-18
6.118508312245680827e+03 5.665986258520534306e-18
6.120643795088413754e+03 5.653699540663929674e-18
6.122780023257749235e+03 5.641408534494867830e-18
6.124916997013808214e+03 5.629113238516716318e-18
6.127054716616828046e+03 5.616813651232173227e-18
6.129193182327112481e+03 5.604509771143554545e-18
6.131332394405078958e+03 5.592201596752521441e-18
6.133472353111220400e+03 5.579889126560302137e-18
6.135613058706117044e+03 5.567572359067621799e-18
6.137754511450461905e+03 5.555251292774555404e-18
6.139896711605012570e+03 5.542925926180808915e-18
6.142039659430643042e+03 5.530596257785417307e-18
6.144183355188291898e+03 5.518262286087042689e-18
6.146327799139015951e+03 5.505924009583669247e-18
6.148472991543937496e+03 5.493581426772902913e-18
6.150618932664293425e+03 5.481234536151690180e-18
6.152765622761395207e+03 5.468883336216549215e-18
6.154913062096645262e+03 5.456527825463475101e-18
6.157061250931553332e+03 5.444168002387844316e-18
6.159210189527699185e+03 5.431803865484631199e-18
6.161359878146776282e+03 5.419435413248156046e-18
6.163510317050545382e+03 5.407062644172351655e-18
6.165661506500883661e+03 5.394685556750480601e-18
6.167813446759741055e+03 5.382304149475387918e-18
6.169966138089157539e+03 5.370439792809052911e-18
6.172119580751285866e+03 5.358917224946811970e-18
6.174273775008342454e+03 5.347390635475954088e-18
6.176428721122661955e+03 5.335860022992788337e-18
6.178584419356646322e+03 5.324325386093262482e-18
6.180740869972811197e+03 5.312786723372718008e-18
6.182898073233748619e+03 5.301244033426085020e-18
6.185056029402138847e+03 5.289697314847823697e-18
6.187214738740775829e+03 5.278146566231784852e-18
6.189374201512518084e+03 5.266591786171474174e-18
6.191534417980340550e+03 5.255032973259773349e-18
6.193695388407287282e+03 5.243470126089197365e-18
6.195857113056516937e+03 5.231903243251643374e-18
6.198019592191262745e+03 5.220332323338613326e-18
6.200182826074848890e+03 5.208757364941121525e-18
6.202346814970709602e+03 5.197178366649591401e-18
6.204511559142347323e+03 5.185595327054085078e-18
6.206677058853381823e+03 5.174008244744032977e-18
6.208843314367497442e+03 5.162417118308522701e-18
6.211010325948499485e+03 5.150821946335993972e-18
6.213178093860262379e+03 5.139222727414516733e-18
6.215346618366755138e+03 5.127619460131653252e-18
6.217515899732057733e+03 5.116012143074374150e-18
6.219685938220315620e+03 5.110108820371380356e-18
6.221856734095793399e+03 5.104825277881716678e-18
6.224028287622821153e+03 5.099539891329143487e-18
6.226200599065848110e+03 5.094252660070013457e-18
6.228373668689394435e+03 5.088963583460505153e-18
6.230547496758075795e+03 5.083672660856566804e-18
6.232722083536616992e+03 5.078379891613877776e-18
6.234897429289809224e+03 5.073085275087958739e-18
6.237073534282563742e+03 5.067788810634036080e-18
6.239250398779858187e+03 5.062490497607176722e-18
6.241428023046786620e+03 5.057190335362162547e-18
6.243606407348518587e+03 5.051888323253592090e-18
6.245785551950314584e+03 5.046584460635842020e-18
6.247965457117546975e+03 5.041278746863018602e-18
6.250146123115657247e+03 5.035971181289057852e-18
6.252327550210201480e+03 5.030661763267618452e-18
6.254509738666806697e+03 5.025350492152184207e-18
6.256692688751214519e+03 5.020037367295962360e-18
6.258876400729243869e+03 5.014722388051970644e-18
6.261060874866803715e+03 5.009405553773008775e-18
6.263246111429916709e+03 5.004086863811598364e-18
6.265432110684670988e+03 4.998766317520101557e-18
6.267618872897273832e+03 4.993443914250593149e-18
6.269806398334000733e+03 4.988119653354978456e-18
6.271994687261245417e+03 4.982793534184876983e-18
6.274183739945475281e+03 4.977465556091728741e-18
6.276373556653248670e+03 4.972135718426751871e-18
6.278564137651240344e+03 4.966804020540882561e-18
6.280755483206188728e+03 4.961470461784899071e-18
6.282947593584953211e+03 4.956135041509288460e-18
6.285140469054459572e+03 4.950797759064374469e-18
6.287334109881752738e+03 4.945458613800191179e-18
6.289528516333951302e+03 4.940117605066593944e-18
6.291723688678268445e+03 4.934774732213206237e-18
6.293919627182027398e+03 4.929429994589385753e-18
6.296116332112621421e+03 4.924083391544319163e-18
6.298313803737561102e+03 4.918734922426905790e-18
6.300512042324426147e+03 4.913384586585880097e-18
6.302711048140914500e+03 4.908032383369684577e-18
6.304910821454791403e+03 4.902678312126602255e-18
6.307111362533941247e+03 4.897322372204622644e-18
6.309312671646324816e+03 4.891964562951551141e-18
6.311514749059993846e+03 4.886604883714972041e-18
6.313717595043113761e+03 4.881243333842191540e-18
6.315921209863918193e+03 4.875879912680350972e-18
6.318125593790759012e+03 4.870514619576303550e-18
6.320330747092058118e+03 4.865147453876730698e-18
6.322536670036355645e+03 4.859778414928029571e-18
6.324743362892264486e+03 4.854407502076416284e-18
6.326950825928494851e+03 4.849034714667871993e-18
6.329159059413866999e+03 4.843660052048110532e-18
6.331368063617270309e+03 4.838283513562676254e-18
6.333577838807714215e+03 4.832905098556821542e-18
6.335788385254275454e+03 4.827524806375636228e-18
6.337999703226150814e+03 4.822142636363916635e-18
6.340211792992612573e+03 4.816758587866274965e-18
6.342424654823024866e+03 4.811372660227101555e-18
6.344638288986868247e+03 4.805984852790502472e-18
6.346852695753687840e+03 4.800595164900425859e-18
6.349067875393151553e+03 4.795203595900521725e-18
6.351283828174994596e+03 4.789810145134275988e-18
6.353500554369073143e+03 4.784414811944881826e-18
6.355718054245315216e+03 4.779017595675355231e-18
6.357936328073746154e+03 4.773618495668476461e-18
6.360155376124503164e+03 4.768217511266753064e-18
6.362375198667793484e+03 4.762814641812522334e-18
6.364595795973943495e+03 4.757409886647831135e-18
6.366817168313347793e+03 4.752003245114562241e-18
6.369039315956521023e+03 4.750553216981000451e-18
6.371262239174054230e+03 4.750070596467289083e-18
6.373485938236631227e+03 4.749587807509282671e-18
6.375710413415051335e+03 4.749104850048187964e-18
6.377935664980181173e+03 4.748621724025196308e-18
6.380161693203008326e+03 4.748138429381475165e-18
6.382388498354589501e+03 4.747654966058173509e-18
6.384616080706100547e+03 4.747171333996417200e-18
6.386844440528794621e+03 4.746687533137313615e-18
6.389073578094017648e+03 4.746203563421951635e-18
6.391303493673231060e+03 4.745719424791392414e-18
6.393534187537963589e+03 4.745235117186685545e-18
6.395765659959865843e+03 4.744750640548852122e-18
6.397997911210656639e+03 4.744265994818899368e-18
6.400230941562177577e+03 4.743781179937806777e-18
6.402464751286342107e+03 4.743296195846540742e-18
6.404699340655161905e+03 4.742811042486043008e-18
6.406934709940760513e+03 4.742325719797232977e-18
6.409170859415332416e+03 4.741840227721013874e-18
6.411407789351192150e+03 4.741354566198265042e-18
6.413645500020722466e+03 4.740868735169847336e-18
6.415883991696429803e+03 4.740382734576597728e-18
6.418123264650894271e+03 4.739896564359335473e-18
6.420363319156790567e+03 4.739410224458861337e-18
6.422604155486909804e+03 4.738923714815947580e-18
6.424845773914110396e+03 4.738437035371354909e-18
6.427088174711373540e+03 4.737950186065815526e-18
6.429331358151749555e+03 4.737463166840047767e-18
6.431575324508408812e+03 4.736975977634743004e-18
6.433820074054598990e+03 4.736488618390576432e-18
6.436065607063662355e+03 4.736001089048203216e-18
6.438311923809056680e+03 4.735513389548251558e-18
6.440559024564308856e+03 4.735025519831336564e-18
6.442806909603065833e+03 4.734537479838045606e-18
6.445055579199046406e+03 4.734049269508952960e-18
6.447305033626089426e+03 4.733560888784603628e-18
6.449555273158104683e+03 4.733072337605530286e-18
6.451806298069122022e+03 4.732583615912237106e-18
6.454058108633247684e+03 4.732094723645212853e-18
6.456310705124684318e+03 4.731605660744925491e-18
6.458564087817749169e+03 4.731116427151818333e-18
6.460818256986830420e+03 4.730627022806316974e-18
6.463073212906435401e+03 4.730137447648824667e-18
6.465328955851145111e+03 4.729647701619726176e-18
6.467585486095657870e+03 4.729157784659381614e-18
6.469842803914752039e+03 4.728667696708134146e-18
6.472100909583300563e+03 4.728177437706304595e-18
6.474359803376291893e+03 4.727687007594191443e-18
6.476619485568782693e+03 4.727196406312076226e-18
6.478879956435956046e+03 4.726705633800214286e-18
6.481141216253059611e+03 4.726214689998845556e-18
6.483403265295467463e+03 4.725723574848183780e-18
6.485666103838629169e+03 4.725232288288425750e-18
6.487929732158087972e+03 4.724740830259748232e-18
6.490194150529506260e+03 4.724249200702302565e-18
6.492459359228614630e+03 4.723757399556223145e-18
6.494725358531265556e+03 4.723265426761621254e-18
6.496992148713384267e+03 4.722773282258588915e-18
6.499259730051016049e+03 4.722280965987195039e-18
6.501528102820283493e+03 4.721788477887490050e-18
6.503797267297404687e+03 4.721295817899502801e-18
6.506067223758715954e+03 4.720802985963239803e-18
6.508337972480622739e+03 4.720309982018689080e-18
6.510609513739652357e+03 4.719816806005814002e-18
6.512881847812403976e+03 4.719323457864561762e-18
6.515154974975597725e+03 4.718829937534853362e-18
6.517428895506032859e+03 4.718336244956593623e-18
6.519703609680602312e+03 4.717842380069664258e-18
6.521979117776318162e+03 4.721603757866626943e-18
6.524255420070261607e+03 4.727144570276235250e-18
6.526532516839637537e+03 4.732687316541178406e-18
6.528810408361719055e+03 4.738231997336375450e-18
6.531089094913905683e+03 4.743778613337052797e-18
6.533368576773672430e+03 4.749327165218618672e-18
6.535648854218589804e+03 4.754877653656716263e-18
6.537929927526346546e+03 4.760430079327276104e-18
6.540211796974703248e+03 4.765984442906402067e-18
6.542494462841539644e+03 4.771540745070489993e-18
6.544777925404810958e+03 4.777098986496119070e-18
6.547062184942592467e+03 4.782659167860158919e-18
6.549347241733038572e+03 4.788221289839674063e-18
6.551633096054398266e+03 4.793785353111958597e-18
6.553919748185040589e+03 4.799351358354597817e-18
6.556207198403403709e+03 4.804919306245345728e-18
6.558495446988048570e+03 4.810489197462256783e-18
6.560784494217608881e+03 4.816061032683559538e-18
6.563074340370841128e+03 4.821634812587785305e-18
6.565364985726578198e+03 4.827210537853647203e-18
6.567656430563753020e+03 4.832788209160104101e-18
6.569948675161411302e+03 4.838367827186389891e-18
6.572241719798675149e+03 4.843949392611924122e-18
6.574535564754785810e+03 4.849532906116414466e-18
6.576830210309058202e+03 4.855118368379749630e-18
6.579125656740930935e+03 4.860705780082120308e-18
6.581421904329919016e+03 4.866295141903900540e-18
6.583718953355636586e+03 4.871886454525707806e-18
6.586016804097813292e+03 4.877479718628440001e-18
6.588315456836252451e+03 4.883074934893174517e-18
6.590614911850879253e+03 4.888672104001284568e-18
6.592915169421691644e+03 4.894271226634321324e-18
6.595216229828811265e+03 4.899872303474137941e-18
6.597518093352436154e+03 4.905475335202770924e-18
6.599820760272865300e+03 4.908314031468849050e-18
6.602124230870512292e+03 4.909704251742354928e-18
6.604428505425864387e+03 4.911094957230780646e-18
6.606733584219532531e+03 4.912486148103484010e-18
6.609039467532197705e+03 4.913877824529865194e-18
6.611346155644667306e+03 4.915269986679399872e-18
6.613653648837819674e+03 4.916662634721608397e-18
6.615961947392656839e+03 4.918055768826085077e-18
6.618271051590259958e+03 4.919449389162469676e-18
6.620580961711807504e+03 4.920843495900465124e-18
6.622891678038597092e+03 4.922238089209841375e-18
6.625203200851997281e+03 4.923633169260415377e-18
6.627515530433501226e+03 4.925028736222077263e-18
6.629828667064673937e+03 4.926424790264760304e-18
6.632142611027205021e+03 4.927821331558473270e-18
6.634457362602864123e+03 4.929218360273273465e-18
6.636772922073516384e+03 4.930615876579276740e-18
6.639089289721146997e+03 4.932013880646669049e-18
6.641406465827813008e+03 4.933412372645682571e-18
6.643724450675696971e+03 4.934811352746622668e-18
6.646043244547051472e+03 4.936210821119837843e-18
6.648362847724255516e+03 4.937610777935754408e-18
6.650683260489767235e+03 4.939011223364844125e-18
6.653004483126141167e+03 4.940412157577638078e-18
6.655326515916053722e+03 4.941813580744740532e-18
6.657649359142250432e+03 4.943215493036798895e-18
6.659973013087603249e+03 4.944617894624534531e-18
6.662297478035056884e+03 4.946020785678713486e-18
6.664622754267679738e+03 4.947424166370178072e-18
6.666948842068620252e+03 4.948828036869817592e-18
6.669275741721126906e+03 4.950232397348581441e-18
6.671603453508563689e+03 4.951637247977488346e-18
6.673931977714369168e+03 4.953042588927604027e-18
6.676261314622108330e+03 4.954448420370068930e-18
6.678591464515415282e+03 4.955854742476065100e-18
6.680922427678053282e+03 4.957261555416853933e-18
6.683254204393862892e+03 4.958668859363741505e-18
6.685586794946783812e+03 4.960076654488095520e-18
6.687920199620873973e+03 4.961484940961353788e-18
6.690254418700265887e+03 4.962893718954999572e-18
6.692589452469215757e+03 4.964302988640591629e-18
6.694925301212054364e+03 4.965712750189731857e-18
6.697261965213237090e+03 4.967123003774099193e-18
6.699599444757299352e+03 4.968533749565419566e-18
6.701937740128873884e+03 4.960565343581838132e-18
6.704276851612715291e+03 4.952382237100616321e-18
6.706616779493650029e+03 4.944196274550159634e-18
6.708957524056630064e+03 4.936007454933597489e-18
6.711299085586681031e+03 4.927815777253801226e-18
6.713641464368954075e+03 4.919621240513202306e-18
6.715984660688679469e+03 4.911423843713956394e-18
6.718328674831188437e+03 4.903223585857866326e-18
6.720673507081930438e+03 4.895020465946320478e-18
6.723019157726428602e+03 4.886814482980449921e-18
6.725365627050332478e+03 4.878605635960942763e-18
6.727712915339363462e+03 4.870393923888236740e-18
6.730061022879372103e+03 4.862179345762317381e-18
6.732409949956284436e+03 4.853961900582905976e-18
6.734759696856130176e+03 4.845741587349360971e-18
6.737110263865057277e+03 4.837518405060627122e-18
6.739461651269286449e+03 4.829292352715396502e-18
6.741813859355166642e+03 4.821063429311908976e-18
6.744166888409117746e+03 4.812831633848158662e-18
6.746520738717687891e+03 4.804596965321692090e-18
6.748875410567505241e+03 4.796359422729773064e-18
6.751230904245297097e+03 4.788119005069319491e-18
6.753587220037911720e+03 4.779875711336827115e-18
6.755944358232270133e+03 4.771629540528536685e-18
6.758302319115421597e+03 4.763380491640239825e-18
6.760661102974485402e+03 4.755128563667483949e-18
6.763020710096712719e+03 4.746873755605353481e-18
6.765381140769423837e+03 4.738616066448693255e-18
6.767742395280068195e+03 4.730355495191894359e-18
6.770104473916176175e+03 4.722092040829065924e-18
6.772467376965376388e+03 4.713825702353973494e-18
6.774831104715419315e+03 4.705556478759955059e-18
6.777195657454128195e+03 4.697284369040095924e-18
6.779561035469455419e+03 4.689009372187026876e-18
6.781927239049425225e+03 4.680731487193130643e-18
6.784294268482189182e+03 4.672450713050342367e-18
6.786662124055980712e+03 4.664167048750310608e-18
6.789030806059132374e+03 4.655880493284338805e-18
6.791400314780098597e+03 4.647591045643302065e-18
6.793770650507406572e+03 4.639298704817822817e-18
6.796141813529712635e+03 4.631003469798070509e-18
6.798513804135744067e+03 4.622705339573966529e-18
6.800886622614360022e+03 4.614404313134971584e-18
6.803260269254496961e+03 4.603245670142813132e-18
6.805634744345192303e+03 4.577867200233401243e-18
6.808010048175607153e+03 4.552479872725896441e-18
6.810386181034974470e+03 4.527083684528967001e-18
6.812763143212654541e+03 4.501678632549921492e-18
6.815140934998084049e+03 4.476264713695250349e-18
6.817519556680825190e+03 4.450841924870102018e-18
6.819899008550522922e+03 4.425410262978743640e-18
6.822279290896922248e+03 4.399969724924368457e-18
6.824660404009889135e+03 4.374520307608880878e-18
6.827042348179365035e+03 4.349062007933375654e-18
6.829425123695419643e+03 4.323594822797578581e-18
6.831808730848195410e+03 4.298118749100438152e-18
6.834193169927963027e+03 4.272633783739530827e-18
6.836578441225076858e+03 4.247139923611538666e-18
6.838964545029989495e+03 4.221637165612096019e-18
6.841351481633276308e+03 4.200758403757721039e-18
6.843739251325588157e+03 4.187593848152927606e-18
6.846127854397702322e+03 4.174424697852597691e-18
6.848517291140472480e+03 4.161250951253159652e-18
6.850907561844880547e+03 4.148072606750335415e-18
6.853298666801988475e+03 4.134889662739404714e-18
6.855690606302960077e+03 4.121702117615085680e-18
6.858083380639081952e+03 4.108509969771421601e-18
6.860476990101715273e+03 4.095313217602041301e-18
6.862871434982348546e+03 4.082111859499874110e-18
6.865266715572547582e+03 4.068905893857422570e-18
6.867662832164003703e+03 4.055695319066496658e-18
6.870059785048492813e+03 4.042480133518440277e-18
6.872457574517889952e+03 4.029260335604050366e-18
6.874856200864195671e+03 4.016035923713433611e-18
6.877255664379480550e+03 4.002806896236307658e-18
6.879655965355949775e+03 3.989573251561651369e-18
6.882057104085878564e+03 3.976334988078054567e-18
6.884459080861674920e+03 3.963092104173376762e-18
6.886861895975825973e+03 3.949844598235041433e-18
6.889265549720922536e+03 3.936592468649898134e-18
6.891670042389676382e+03 3.923335713804132357e-18
6.894075374274875685e+03 3.910074332083506659e-18
6.896481545669438674e+03 3.896210742027068986e-18
6.898888556866355430e+03 3.879892884190821065e-18
6.901296408158748818e+03 3.863569331092924267e-18
6.903705099839821742e+03 3.847240080745667896e-18
6.906114632202880784e+03 3.830905131160637906e-18
6.908525005541353494e+03 3.814564480348600578e-18
6.910936220148743814e+03 3.798218126319802959e-18
6.913348276318686658e+03 3.781866067083605400e-18
6.915761174344888786e+03 3.765508300648881375e-18
6.918174914521189748e+03 3.749144825023602255e-18
6.920589497141502761e+03 3.732775638215242519e-18
6.923004922499872009e+03 3.716400738230386866e-18
6.925421190890422622e+03 3.700020123075073034e-18
6.927838302607382502e+03 3.683633790754639259e-18
6.930256257945105062e+03 3.667241739273576372e-18
6.932675057198015566e+03 3.650843966635885243e-18
6.935094700660672061e+03 3.641813204352114045e-18
6.937515188627707175e+03 3.635322557335568478e-18
6.939936521393882686e+03 3.628829644952247383e-18
6.942358699254044950e+03 3.622334466411507215e-18
6.944781722503140372e+03 3.615837020922435568e-18
6.947205591436242685e+03 3.609337307693780302e-18
6.949630306348496561e+03 3.602835325934097454e-18
6.952055867535181278e+03 3.596331074851580988e-18
6.954482275291648875e+03 3.589824553654233043e-18
6.956909529913384176e+03 3.583315761549695996e-18
6.959337631695952041e+03 3.576804697745401141e-18
6.961766580935022830e+03 3.570291361448493964e-18
6.964196377926388777e+03 3.563775751865794856e-18
6.966627022965920332e+03 3.557257868203913893e-18
