# Dy/Dy atomic spectroscopy
# https://arxiv.org/pdf/1503.06886.pdf
# mass [eV] 	d_e
1.0024053427772376e-24	0.000001464095137741876
1.0616474683124939e-24	0.0000013831446364242268
1.1243908016807035e-24	0.0000013066699259856336
1.1908422641592495e-24	0.0000012344235378660926
1.2612210060667423e-24	0.000001166171686157407
1.335759129499024e-24	0.0000011016935110830103
1.4147024537788023e-24	0.000001040780364306144
1.498311326143334e-24	9.843972091845066e-7
1.5868614803437845e-24	9.288716057705883e-7
1.6806449459876626e-24	8.775138625416675e-7
1.7799710116234894e-24	8.289957128294196e-7
1.885167244743677e-24	7.831601541872208e-7
1.996580572069564e-24	7.398588649067698e-7
2.114578423681242e-24	6.989517240560151e-7
2.23954994476551e-24	6.603063580544359e-7
2.3719072789779224e-24	6.237977123183531e-7
2.5120869276516676e-24	5.893076465902079e-7
2.6605511893355648e-24	5.567245526422436e-7
2.8177896844087297e-24	5.247019804975568e-7
2.984320969799898e-24	4.9569096388483e-7
3.160694249136731e-24	4.682839798776336e-7
3.347491183964653e-24	4.4134847387441904e-7
3.545327812008912e-24	4.169461114220593e-7
3.7548565788057414e-24	3.938929669425845e-7
3.976768489402864e-24	3.7211444154656546e-7
4.211795387225585e-24	3.507105686727177e-7
4.460712367623485e-24	3.313196181671089e-7
4.7243403340579644e-24	3.1226224711107685e-7
5.003548705360245e-24	2.949971221922112e-7
5.299258282988215e-24	2.78357606088076e-7
5.6124442877382924e-24	2.623465886456567e-7
5.944139575926429e-24	2.472565184808937e-7
6.295438045645754e-24	2.330344230771244e-7
6.667498244333717e-24	2.1807932606996298e-7
7.06154718954639e-24	2.0577841129779875e-7
7.478884415540356e-24	1.9647847299262291e-7
7.92088625900776e-24	1.8605409919160774e-7
8.389010398097575e-24	1.7514533984190735e-7
8.884800659693486e-24	1.6487618494632396e-7
9.409892110801464e-24	1.5520913309478802e-7
9.871097473826171e-24	1.5022590722119672e-7
1.0354907813016182e-23	1.3951404166656888e-7
1.0966882552561277e-23	1.3639322107443196e-7
1.1615024980762135e-23	1.2854793790670941e-7
1.2301472606928033e-23	1.2172769070263204e-7
1.3028489267103696e-23	1.1595208896569102e-7
1.379847258997593e-23	1.0967050944800986e-7
1.461396190401464e-23	1.0130746383405503e-7
1.5477646611925614e-23	9.810980855749479e-8
1.6392375060033858e-23	9.052135068833105e-8
1.7361163931845905e-23	8.653248481586487e-8
1.8387208196772717e-23	8.28171553846044e-8
1.9473891646821103e-23	7.796140417007747e-8
2.0624798056003287e-23	7.43501470494644e-8
2.1843722999268068e-23	7.03223079220408e-8
2.3134686369928774e-23	6.770163783028336e-8
2.4501945636872523e-23	6.290942024686517e-8
2.5950009885269294e-23	6.238014347537356e-8
2.7483654687086434e-23	5.9210210928985224e-8
2.910793785045126e-23	5.488923092339393e-8
3.0828216099798225e-23	5.3408461910120506e-8
3.2650162741814594e-23	5.147888311081947e-8
3.425043934252812e-23	5.032885511477933e-8
3.5929150014735914e-23	4.7942349647318714e-8
3.8052561697330123e-23	4.7314914656462746e-8
4.030146694634404e-23	4.501676371933905e-8
4.268328242776937e-23	4.3647386089960105e-8
4.520586313233399e-23	4.262065510265578e-8
4.787752828048204e-23	4.171651030858358e-8
5.070708875833399e-23	4.083154583463249e-8
5.370387617511472e-23	3.987105273015316e-8
5.687777363787298e-23	3.9582331725046623e-8
6.023924834498564e-23	4.033023170630469e-8
6.379938610593948e-23	3.9990920761341964e-8
6.756992790122627e-23	4.176989975447592e-8
7.156330860293133e-23	4.30139812629351e-8
7.57926979837053e-23	4.562264675959973e-8
8.027204414936476e-23	4.972215794446985e-8
8.501611953836148e-23	5.431820762562596e-8
9.004056963981233e-23	5.8573079400006935e-8
9.536196459076997e-23	6.256721193953776e-8
1.0099785382288724e-22	6.481237509030396e-8
1.0696682393869772e-22	6.619318064769553e-8
1.1328856000838687e-22	6.357602041245811e-8
1.188411519860609e-22	5.451800211599122e-8
1.188411519860609e-22	5.932235241348342e-8
1.25864660485334e-22	5.488935481151071e-8
1.323046811875626e-22	5.958821546212182e-8
1.3574925879086097e-22	6.467569412879752e-8
1.3705460308603581e-22	7.213197924943159e-8
1.398368269304121e-22	8.02743596593989e-8
1.4185864251421188e-22	8.708697694244357e-8
1.466906243777423e-22	9.548173600379034e-8
1.538803457764391e-22	1.050525862618626e-7
1.614224557071921e-22	1.0102128604891358e-7
1.685259044750751e-22	9.476607330684933e-8
1.7763377391755183e-22	8.868574908480181e-8
1.8854155301055477e-22	8.91081978481621e-8
1.9454006464391482e-22	1.0124863999190933e-7
2.0505385191968533e-22	1.1068760390779018e-7
2.16135849775022e-22	1.0531293831598568e-7
2.28312802836653e-22	9.801487724230399e-8
2.3557664988783345e-22	1.0161891437604438e-7
2.38411631948422e-22	1.1171854361803855e-7
2.4360084975014013e-22	1.2657386150035142e-7
2.555404147333747e-22	1.3926130860497592e-7
2.7064284553948033e-22	1.4875761868282317e-7
2.866378295508853e-22	1.5703559796405433e-7
3.0039914145779056e-22	1.6628962175083398e-7
3.050342052039924e-22	1.815558817480302e-7
3.1845733669846593e-22	1.907642029526542e-7
3.3727815569574303e-22	1.778903318155269e-7
3.572112845283048e-22	1.7350070373372963e-7
3.7832246067387696e-22	1.77458899985556e-7
4.026031430788103e-22	1.916395347747843e-7
4.235501162090607e-22	1.9997496909339516e-7
4.714697022195871e-22	1.9324881794611035e-7
4.8288552521518815e-22	2.1188343609900326e-7
4.875288792281427e-22	2.2824538067357991e-7
4.969499659646452e-22	2.493731766582576e-7
5.041350631068744e-22	2.7831572468958887e-7
5.313807043657264e-22	2.9253796035705187e-7
5.5317385949137195e-22	3.2912240297052093e-7
5.654846433595469e-22	3.737895668801662e-7
5.9604588152341625e-22	3.939439417429711e-7
6.0425056044934565e-22	4.3229513853911383e-7
6.363266513589763e-22	3.9172869455959735e-7
6.685803416687652e-22	3.9866915404236913e-7
6.989129195806855e-22	3.726192221384593e-7
7.329135179014773e-22	3.6056704596503335e-7
7.407708443720792e-22	4.064733946921143e-7
8.2210377657474965e-22	3.809227375995073e-7
8.292150706480772e-22	4.3376398649993906e-7
8.400549369792327e-22	3.5627643545512843e-7
8.740294428166824e-22	3.9739345796752305e-7
8.782216563222486e-22	4.320495143640706e-7
9.28911520238768e-22	4.679606031559385e-7
9.526458857075683e-22	5.188450904492674e-7
9.737137186048118e-22	5.895990737279335e-7
9.850948613957842e-22	6.628822183978332e-7
1.0186491124428755e-21	5.701446182728499e-7
1.0186491124428755e-21	6.207546109756299e-7
1.0304145968014246e-21	6.806394321382023e-7
1.0539064594456503e-21	7.879460232453896e-7
1.0892253143044403e-21	6.865761132099117e-7
1.1209499034583861e-21	6.188110969808129e-7
1.1636784944999101e-21	5.440726804216094e-7
1.2082109987147963e-21	6.489037900676236e-7
1.2276362871319779e-21	7.565655933710472e-7
1.2533568208566598e-21	7.047566217159244e-7
1.2597702471645651e-21	8.143696255672728e-7
1.3036504575960261e-21	9.268254911494806e-7
1.331671394872178e-21	0.0000010014303441402793
1.3704574268671833e-21	0.0000011903715857119249
1.3723323017143344e-21	0.0000010866947045141771
1.3809898168594776e-21	9.078923570582378e-7
1.4307648610321939e-21	7.946627297261762e-7
1.4794995009311571e-21	6.22668624602194e-7
1.493726143864274e-21	5.181117439556299e-7
1.506029242135977e-21	5.631373372736908e-7
1.5225911489162956e-21	8.244634815754712e-7
1.5298941376547212e-21	3.6049923405788105e-7
1.577881702323004e-21	9.314558116245223e-7
1.6532033271000482e-21	0.000001041265957771607
1.6787117315826833e-21	6.853999123140897e-7
1.6916131514262062e-21	7.54732706001461e-7
1.6916131514262062e-21	6.300993794858713e-7
1.707879447069536e-21	8.353551747919519e-7
1.7711307263253434e-21	8.204455781728677e-7
1.774523884983431e-21	9.472220479472095e-7
1.8681906983994243e-21	0.0000010085513235520549
1.9341372215922446e-21	0.000001092997348023556
1.943414158712174e-21	9.924732104231764e-7
2.0203234153817514e-21	0.0000011740339687132933
2.0738047832360123e-21	0.0000010233896042122427
2.1013932354508822e-21	0.0000011775921229069414
2.128378560719239e-21	0.0000018976819783549982
2.1529615151039535e-21	0.0000013163990873187438
2.1570861908813482e-21	0.0000015782633263707378
2.1591514911177993e-21	0.0000014478722621151244
2.163583795569129e-21	0.0000020828287554866293
2.1674324852040615e-21	0.0000017639900196945305
2.225585512308274e-21	0.0000012460623017581709
2.2273611080546945e-21	0.0000010877908092268968
2.293331931132631e-21	0.0000010284662164696997
2.3646486892353375e-21	9.607276001158205e-7
2.3988377056414673e-21	0.0000012052407194256238
2.3988377056414673e-21	0.0000011069776973928823
2.3988377056414673e-21	0.0000010312400399295878
2.4401840247631474e-21	0.0000013308870616116512
2.456921409671364e-21	0.0000016508223650571763
2.5773420603364164e-21	0.000001297137579951425
2.6021253909058855e-21	0.0000012290819841971248
2.677914447466929e-21	0.0000013639138102329155
2.7110675056317427e-21	0.0000017275889604555586
2.7296628983945168e-21	0.000002395822642360077
2.7427555118783544e-21	0.0000021263592378199244
2.7427555118783544e-21	0.000002932031128986853
2.7427555118783544e-21	0.000002692983248522258
2.747133656570838e-21	0.0000019277765777154655
2.890985893389323e-21	0.0000016886228693573455
3.0520914465372526e-21	0.0000018209148996529643
3.087061989906589e-21	0.0000016617067706064018
3.1359803042312954e-21	0.0000020760856177955424
3.2180660708507985e-21	0.00000141329665802645
3.2273183271729814e-21	0.0000018465846901315474
3.242797905794881e-21	0.0000016872158107575285
3.2583517309986238e-21	0.0000015485362834884209
3.4250693189368094e-21	0.0000019651827206199733
3.597037311690316e-21	0.000002077397546146691
3.6200595570601406e-21	0.0000018844717573126524
3.7613206014558704e-21	0.000002338910598228677
3.767324638548012e-21	0.0000026202546934605217
3.769041837373418e-21	0.0000039426376339731144
3.779361480002676e-21	0.00000351425312725515
3.779361480002676e-21	0.000003227736809886889
3.779361480002676e-21	0.00000298566516152211
3.779361480002676e-21	0.000004476023746904758
3.815703247105254e-21	0.0000021481227389427654
3.939385262780054e-21	0.00000194847240088858
4.00819761290963e-21	0.000002376030986886336
4.0800708682242444e-21	0.0000025624704877368456
4.086583712894253e-21	0.0000021693308848796208
4.307440387948013e-21	0.000002132559367354127
4.347126335744799e-21	0.0000024157460521280157
4.362754965906048e-21	0.0000026418307825713236
4.5547394469460055e-21	0.0000022073563606670748
4.620593652852478e-21	0.0000026320105331181733
4.642755967033563e-21	0.0000024432225540447966
4.814042149066329e-21	0.000002275801852694816
4.823924410933496e-21	0.0000026882059660994736
4.9205050405545826e-21	0.000002991052077111686
4.940727393097825e-21	0.000002442744678659339
5.0281765408644936e-21	0.000003178701779270906
5.2077456902988864e-21	0.0000034933384842785717
5.232724233065214e-21	0.0000029608487578601686
5.308381008410974e-21	0.0000031969853696278088
5.359425595524478e-21	0.0000022390437575100226
5.407263539804063e-21	0.000002768712311278307
5.5268455653993724e-21	0.0000024517928817113716
5.622106165958483e-21	0.0000026210827922998586
5.6956008255417006e-21	0.0000028106217610262765
5.897661452321216e-21	0.00000289405070960658
5.9584440630867496e-21	0.000003251305691971211
6.08189505815847e-21	0.000003568472339141039
6.2686692238952935e-21	0.000003987477664054237
6.27617253622715e-21	0.000004453082421791928
6.336523259970834e-21	0.0000035201699825534326
6.428139193736886e-21	0.000058539430509013255
6.808042026276047e-21	0.000055302758161433936
7.210397104764068e-21	0.00005230679080942776
7.636531356259519e-21	0.00004953159853811215
8.08785012917038e-21	0.00004701458242476201
8.565841827952715e-21	0.00004452017388305487
9.072082821721536e-21	0.00004220793506510645
9.641138119713611e-21	0.000040552356365887064
1.0210929091904935e-20	0.00003852412217680186
1.0814394693373275e-20	0.00003641253381051926
1.145352509369378e-20	0.00003450390933711536
1.2089039169635383e-20	0.00003225183317678247
1.2847336015277417e-20	0.00003101293091018582
1.3606613186428552e-20	0.000029357597590687733
1.4361594219353432e-20	0.00002741827929835385
1.521036400470991e-20	0.00002599425948473997
1.610929605879037e-20	0.00002461510647412136
1.706135497016386e-20	0.00002333667470413539
1.8069680534494612e-20	0.000022124640688399554
1.9137598109275933e-20	0.000020975555934884114
2.0268629580528568e-20	0.000019886151055467247
2.14665049776314e-20	0.00001889791790229224
2.4078822918291086e-20	0.0000171471657604937
2.5501880626776993e-20	0.000016352890373716035
2.70090410029285e-20	0.000015706326271515297
2.874247746209565e-20	0.00001545939912663856
3.0295845373061615e-20	0.000014591928887389688
3.3466256243459775e-20	0.000013980069077551206
3.523197931655546e-20	0.000013639747040366498
3.726784126775911e-20	0.000013350203000026827
3.9605503184531785e-20	0.000013118551611671898
4.1946187228617577e-20	0.000012876709648849351
4.4425205629136006e-20	0.000012678202352148314
4.705073394238216e-20	0.000012601270540494311
4.983143089978055e-20	0.000012554428925599566
5.277646696352217e-20	0.000012552162247983297
5.589555456983704e-20	0.000012697513356589658
5.941970744612775e-20	0.000013000084567155329
6.283415259263009e-20	0.000013579911953186354
6.665774231656541e-20	0.000014514584177741051
6.999177580921725e-20	0.000016185933931829948
7.342227022835938e-20	0.000017595100741935746
7.628733540501808e-20	0.000018956586430969563
8.002639296331587e-20	0.00002145139905754063
8.394871228256048e-20	0.000023752656244609742
8.764290324388873e-20	0.000025775270707901018
9.149965830522157e-20	0.000028069407279934433
9.644469595074536e-20	0.00003081695869144547
1.0214457457359245e-19	0.00003338830274414972
1.0818131585119642e-19	0.000035622968217187935
1.145748283562969e-19	0.00003720764071096855
1.2134619725768212e-19	0.000038180304370762396
1.2851775385697897e-19	0.00003835419821959917
1.3611314923507033e-19	0.00003830200470100105
1.4415743225100302e-19	0.00003806958668701282
1.5267713215063934e-19	0.000038107699224513176
1.6170034605747217e-19	0.00003837180431958432
1.7125683163414428e-19	0.00003891254391347918
1.8137810522026767e-19	0.00003974156239664874
1.9209754577017097e-19	0.00004082866458985681
2.034505049333786e-19	0.0000423437478085606
2.282089555813769e-19	0.00004586859556875937
2.416960979756549e-19	0.00004785248405417092
2.559803300787926e-19	0.000050040253566519834
2.7110875986855104e-19	0.000052266272828171666
2.871312794027566e-19	0.00005484985714827532
3.041007293583466e-19	0.00005722219924145793
3.231757460403243e-19	0.00005928492775535691
3.427436779157202e-19	0.000060513665793820014
3.622286668341742e-19	0.00006358040961815676
3.8152099026886095e-19	0.00006694652525224576
4.0523060701402985e-19	0.00007203832935952846
4.291797236707118e-19	0.00007616394104103033
4.545442323997254e-19	0.0000804972952836535
4.814077828298786e-19	0.00008263089127955385
5.074251434740116e-19	0.0000862529563375418
5.348485949189783e-19	0.00009369883204971221
5.637541283987565e-19	0.00009333968709676743
5.884401896642061e-19	0.0000861048020155901
6.013728405095459e-19	0.00010221978634937818
6.360003317320147e-19	0.0001130705523458546
6.6208418042189e-19	0.00011675307677397902
6.752475615151974e-19	0.00010990950183803123
6.826733052222658e-19	0.00009885490286007093
6.992030579922798e-19	0.00010890061066054419
7.110114552174426e-19	0.0001220783774663463
7.264871820957211e-19	0.00013484297749190917
7.5845649179264155e-19	0.00014252131418730958
7.731130274349026e-19	0.0001287469540424265
7.956305844938891e-19	0.00012812852120405428
8.132260126099693e-19	0.0001417705711192992
8.346266843677493e-19	0.00015471407673800497
8.788920291850346e-19	0.00015532059737043038
9.292522230164232e-19	0.00016633149444539774
9.727266492447736e-19	0.00014529837349117763
9.78328059479287e-19	0.00015726167986573729
9.807385271959774e-19	0.00017261243795388008
1.0155318084637513e-18	0.00017737663663608725
1.0368084849532438e-18	0.00018726879292230506
1.0963338038427331e-18	0.00018923699235745377
1.1611270985949835e-18	0.0001948962774375381
1.2093261326450058e-18	0.0001812493108592925
1.2326953459855583e-18	0.00021069577202165957
1.2811377913011556e-18	0.0002320276323134225
1.3339638803182453e-18	0.00023447761654874896
1.351633008969536e-18	0.00025072366218929467
1.4012596091835891e-18	0.00028059581496268893
1.433227936858037e-18	0.00024898065592605196
1.4470096394450364e-18	0.000320481596472459
1.5010783740364588e-18	0.00033923802370014553
1.517931664714014e-18	0.00026602162955418967
1.5222958674781226e-18	0.0003061669104186488
1.525212304602783e-18	0.00028080519022132797
1.5674909463348805e-18	0.0003716764982023629
1.5847287516880968e-18	0.0003363872817358821
1.6179308244269817e-18	0.00028442474023687936
1.6219911007274901e-18	0.0003157377311480753
1.6231002161536653e-18	0.0002609246463913018
1.6646750515633648e-18	0.0003704792117484374
1.6783861731327128e-18	0.0004219434819812334
1.7231430434633912e-18	0.000293150536644851
1.7272705601232192e-18	0.0003121791408156433
1.7272705601232192e-18	0.00026647954728037366
1.7383256710963365e-18	0.00034609542931049426
1.7775787453609148e-18	0.00040287419125268497
1.832272315739284e-18	0.00028230563942092425
1.838126542141944e-18	0.00035145839986497926
1.838126542141944e-18	0.00031601323465778075
1.846942971586313e-18	0.0002589767356929144
1.9216392468028472e-18	0.0003919142746132325
1.946759765362347e-18	0.00042979312426245404
1.953424833365777e-18	0.0003299281896431305
1.9824811404361773e-18	0.00046144116181684875
2.022725730371514e-18	0.00032327921531154273
2.025146841196552e-18	0.0003589015451839109
2.0363213303669347e-18	0.00038978531148912054
2.0816392920785597e-18	0.0004875929054929477
2.0816392920785597e-18	0.0006315403564902664
2.0856273276774825e-18	0.0005555054390852794
2.0949624818041565e-18	0.00042868006946984223
2.1628684917144374e-18	0.0003760768759213022
2.194140091036653e-18	0.0005434756880000914
2.204664111478236e-18	0.0004367886539023625
2.204664111478236e-18	0.0004069042673144279
2.2081833236123747e-18	0.0004859692852865895
2.2828781271455342e-18	0.00033211193676999855
2.2994794532817212e-18	0.00037500647641964613
2.301681087819392e-18	0.0003163498343092849
2.368719455286188e-18	0.0003468496316361269
2.4029673284214288e-18	0.00043266567052382303
2.4144929722889612e-18	0.0003906825314709114
2.532834085523073e-18	0.0004828721257786268
2.5510787284912677e-18	0.0005291275271661397
2.5541322538567573e-18	0.000428286509428213
2.5694547922260235e-18	0.0005910056123772521
2.665464635849994e-18	0.0003971671565953345
2.669719404384014e-18	0.0006576817238814936
2.6711391692952624e-18	0.0007291480915375397
2.677395110132074e-18	0.0006077772644439284
2.682524503611636e-18	0.0008058285877384037
2.688950066841002e-18	0.0004474791856354634
2.6953910214909562e-18	0.0004803399137070564
2.7025657342791295e-18	0.000539538917129864
2.734362040008083e-18	0.00038557942246348075
2.7872012933230883e-18	0.0007117491538994291
2.7872012933230883e-18	0.0006407244374862145
2.8169963846131242e-18	0.00041223260724853656
2.8274997406901173e-18	0.0005747209885617828
2.8546885495940482e-18	0.00047798945682869944
2.8546885495940482e-18	0.0004418804730879724
2.8644620684689686e-18	0.0005239380238896415
2.95192480572337e-18	0.0004333061097715574
3.008968277031923e-18	0.00046455249022391227
3.026295308953356e-18	0.000570809965351042
3.03064263471327e-18	0.0005099772592157475
3.136372466468582e-18	0.00044096773524918045
3.1413789252682027e-18	0.0006296071247609519
3.202083438555761e-18	0.0004846378194563692
3.2090554841085865e-18	0.0005418944936370981
3.2251488534697246e-18	0.0007177530305593051
3.311152641717369e-18	0.0006449320273938573
3.327034325037859e-18	0.000588853905071154
3.342992183603765e-18	0.000713867467677144
3.393129990978934e-18	0.00051321983308638
3.4403595989373292e-18	0.00048270047603659206
3.540562920862341e-18	0.0005912941084624494
3.608981330098525e-18	0.0005386119936214544
3.608981330098525e-18	0.0004936983684781066
3.626291525307303e-18	0.0006539515950676669
3.634187218904116e-18	0.0007379953918165852
3.714095899561823e-18	0.0005299093555560575
3.7426398774454935e-18	0.0006131914430534573
3.810098511201205e-18	0.0008087520397268677
3.8406052451189504e-18	0.0006726340168734997
