# SRF scanning haloscope SHANHE
# 2305.09711
# random polarisation and DM density = 0.45 GeV/cc, 100 s integration time
# mass [eV] kinetic mixing
5.367181430713232891e-06 3.118568364890459728e-14
5.367181529957319452e-06 3.070468189443829461e-14
5.367181629201405166e-06 3.023117125607766515e-14
5.367181728445491728e-06 2.976503440607639362e-14
5.367181827689577442e-06 2.930615586200309264e-14
5.367181926933664003e-06 2.885442195762801244e-14
5.367182026177750564e-06 2.840972081427097532e-14
5.367182125421836279e-06 2.797194231260264962e-14
5.367182224665921993e-06 2.754097806913831545e-14
5.367182323910007707e-06 2.711672139186572302e-14
5.367182423154094269e-06 2.669906727905121794e-14
5.367182522398179983e-06 2.628791237558871308e-14
5.367182621642266544e-06 2.588315495127659864e-14
5.367182720886352258e-06 2.548469487519090776e-14
5.367182820130438820e-06 2.509243359046285538e-14
5.367182919374524534e-06 2.470627408945615286e-14
5.367183018618611095e-06 2.432612088933638969e-14
5.367183117862695962e-06 2.395188001171555061e-14
5.367183217106782524e-06 2.358345894417444782e-14
5.367183316350868238e-06 2.322076663928008106e-14
5.367183415594954799e-06 2.286371347673332412e-14
5.367183514839041360e-06 2.251221124455734688e-14
5.367183614083127075e-06 2.216617311689408704e-14
5.367183713327213636e-06 2.182551363215267053e-14
5.367183812571299350e-06 2.149014867150314150e-14
5.367183911815385911e-06 2.115999543770965194e-14
5.367184011059470779e-06 2.083497243750253162e-14
5.367184110303557340e-06 2.051499944821006195e-14
5.367184209547643054e-06 2.019999751695355065e-14
5.367184308791729615e-06 1.988988892782102147e-14
5.367184408035815330e-06 1.958459718557570604e-14
5.367184507279901891e-06 1.928404699641930158e-14
5.367184606523988452e-06 1.898816424905853288e-14
5.367184705768074167e-06 1.869687599607201163e-14
5.367184805012160728e-06 1.841011043557020800e-14
5.367184904256245595e-06 1.812779689592945861e-14
5.367185003500332156e-06 1.784986580685225393e-14
5.367185102744417871e-06 1.757624869871157500e-14
5.367185201988504432e-06 1.730687817408093173e-14
5.367185301232590146e-06 1.704168789362522273e-14
5.367185400476676707e-06 1.678061255943324670e-14
5.367185499720762422e-06 1.652358789861255098e-14
5.367185598964848983e-06 1.627055064714429825e-14
5.367185698208934697e-06 1.602143853399245870e-14
5.367185797453020411e-06 1.577619026788232778e-14
5.367185896697106126e-06 1.553474551219986511e-14
5.367185995941192687e-06 1.529704488446137177e-14
5.367186095185279248e-06 1.506302993161922512e-14
5.367186194429364962e-06 1.483264311784337951e-14
5.367186293673451524e-06 1.460582781007820661e-14
5.367186392917537238e-06 1.438252826382840207e-14
5.367186492161623799e-06 1.416268960916835745e-14
5.367186591405709513e-06 1.394625783697332681e-14
5.367186690649796075e-06 1.373317978536756311e-14
5.367186789893880942e-06 1.352340312845449353e-14
5.367186889137967503e-06 1.331687635488588834e-14
5.367186988382053217e-06 1.311354876744609170e-14
5.367187087626139779e-06 1.291337046196764092e-14
5.367187186870225493e-06 1.271629231691621036e-14
5.367187286114312054e-06 1.252226598107361187e-14
5.367187385358398616e-06 1.233124386141451090e-14
5.367187484602484330e-06 1.214317911117505210e-14
5.367187583846570891e-06 1.195802561810927788e-14
5.367187683090655758e-06 1.177573799472878281e-14
5.367187782334742320e-06 1.159627155971110800e-14
5.367187881578828034e-06 1.141958233757002407e-14
5.367187980822914595e-06 1.124562704036400193e-14
5.367188080067000309e-06 1.107436305867651445e-14
5.367188179311086871e-06 1.090574845094178282e-14
5.367188278555172585e-06 1.073974193293966896e-14
5.367188377799259146e-06 1.057630286745556601e-14
5.367188477043345707e-06 1.041539125410432771e-14
5.367188576287430575e-06 1.025696772087586626e-14
5.367188675531516289e-06 1.010099350800629629e-14
5.367188774775602850e-06 9.947430467719054366e-15
5.367188874019689411e-06 9.796241048355543530e-15
5.367188973263775126e-06 9.647388286562912797e-15
5.367189072507861687e-06 9.500835798044024065e-15
5.367189171751947401e-06 9.356547768453326731e-15
5.367189270996033963e-06 9.214488944436226120e-15
5.367189370240119677e-06 9.074624624810035078e-15
5.367189469484205391e-06 8.936920653241587191e-15
5.367189568728291105e-06 8.801343404253047853e-15
5.367189667972377667e-06 8.667859783022098952e-15
5.367189767216463381e-06 8.536437211612778824e-15
5.367189866460549942e-06 8.407043622209160368e-15
5.367189965704636503e-06 8.279647449098976499e-15
5.367190064948722218e-06 8.154217620783499643e-15
5.367190164192808779e-06 8.030723552211947653e-15
5.367190263436894493e-06 7.909135137138507110e-15
5.367190362680980207e-06 7.789422741779853778e-15
5.367190461925065922e-06 7.671557192672589035e-15
5.367190561169152483e-06 7.555509776521977370e-15
5.367190660413238197e-06 7.441252228253996375e-15
5.367190759657324758e-06 7.328756725155114697e-15
5.367190858901410473e-06 7.217995879924524250e-15
5.367190958145497034e-06 7.108942733836134543e-15
5.367191057389582748e-06 7.001570750008415330e-15
5.367191156633669309e-06 6.895853806780353682e-15
5.367191255877754177e-06 6.791766192217941810e-15
5.367191355121840738e-06 6.689282593577097693e-15
5.367191454365927299e-06 6.588378097192730718e-15
5.367191553610013013e-06 6.489028178110128282e-15
5.367191652854099575e-06 6.391208695009508349e-15
5.367191752098185289e-06 6.294895884184363325e-15
5.367191851342271850e-06 6.200066353615129095e-15
5.367191950586357565e-06 6.106697077136255985e-15
5.367192049830444126e-06 6.014765388695103915e-15
5.367192149074528993e-06 5.924248977593883679e-15
5.367192248318615554e-06 5.835125879345232600e-15
5.367192347562701269e-06 5.747374475594117309e-15
5.367192446806787830e-06 5.660973485119374700e-15
5.367192546050873544e-06 5.575901959437833448e-15
5.367192645294960105e-06 5.492139277585488730e-15
5.367192744539046667e-06 5.409665140981184691e-15
5.367192843783132381e-06 5.328459568371170149e-15
5.367192943027218942e-06 5.248502890853483859e-15
5.367193042271303809e-06 5.169775747756849699e-15
5.367193141515390371e-06 5.092259078704324960e-15
5.367193240759476085e-06 5.015934123562141932e-15
5.367193340003562646e-06 4.940782414629989673e-15
5.367193439247648360e-06 4.866785772833739357e-15
5.367193538491734922e-06 4.793926303202534728e-15
5.367193637735820636e-06 4.722186390417278410e-15
5.367193736979907197e-06 4.651548694429168278e-15
5.367193836223993759e-06 4.581996146147505284e-15
5.367193935468078626e-06 4.513511943870687136e-15
5.367194034712164340e-06 4.446079546397911164e-15
5.367194133956250901e-06 4.379682673000133195e-15
5.367194233200337463e-06 4.314305296641541987e-15
5.367194332444423177e-06 4.249931640682671270e-15
5.367194431688509738e-06 4.186546174960677707e-15
5.367194530932595452e-06 4.124133611931521552e-15
5.367194630176682014e-06 4.062678902873002407e-15
5.367194729420767728e-06 4.002167234147742105e-15
5.367194828664854289e-06 3.942584023525220915e-15
5.367194927908939156e-06 3.883914917140256489e-15
5.367195027153025718e-06 3.826145783607765450e-15
5.367195126397111432e-06 3.769262714013461144e-15
5.367195225641197993e-06 3.713252016122280631e-15
5.367195324885284554e-06 3.658100211569261260e-15
5.367195424129370269e-06 3.603794032516638453e-15
5.367195523373456830e-06 3.550320418363848048e-15
5.367195622617542544e-06 3.497666512509436090e-15
5.367195721861629105e-06 3.445819659164311634e-15
5.367195821105713973e-06 3.394767400718584654e-15
5.367195920349800534e-06 3.344497472633768598e-15
5.367196019593886248e-06 3.294997803447982925e-15
5.367196118837972809e-06 3.246256509749421741e-15
5.367196218082058524e-06 3.198261893744948018e-15
5.367196317326145085e-06 3.151002440364103168e-15
5.367196416570230799e-06 3.104466814409033055e-15
5.367196515814317361e-06 3.058643857749624023e-15
5.367196615058403922e-06 3.013522586562956736e-15
5.367196714302488789e-06 2.969092189054702350e-15
5.367196813546575350e-06 2.925342021026672445e-15
5.367196912790661065e-06 2.882261605894132546e-15
5.367197012034747626e-06 2.839840630323921570e-15
5.367197111278833340e-06 2.798068942131047704e-15
5.367197210522919901e-06 2.756936547771007265e-15
5.367197309767005616e-06 2.716433609871854266e-15
5.367197409011092177e-06 2.676550444805658984e-15
5.367197508255177891e-06 2.637277520298584823e-15
5.367197607499263605e-06 2.598605453460272359e-15
5.367197706743349320e-06 2.554647431630542237e-15
5.367197805987435881e-06 2.517235587432052514e-15
5.367197905231521595e-06 2.480396005153194582e-15
5.367198004475608156e-06 2.444119894977003110e-15
5.367198103719694718e-06 2.408398604564430946e-15
5.367198202963780432e-06 2.373223616924053516e-15
5.367198302207866993e-06 2.338586548315855167e-15
5.367198401451952707e-06 2.304479146188739708e-15
5.367198500696038422e-06 2.270893287482228845e-15
5.367198599940124136e-06 2.237820975300116576e-15
5.367198699184210697e-06 2.205254338947903801e-15
5.367198798428296411e-06 2.173185630660008873e-15
5.367198897672382973e-06 2.141607224034306665e-15
5.367198996916468687e-06 2.110511612161230546e-15
5.367199096160555248e-06 2.079891405783097590e-15
5.367199195404640963e-06 2.049739331483335565e-15
5.367199294648727524e-06 2.020048229905235797e-15
5.367199393892812391e-06 1.990811054287869926e-15
5.367199493136898952e-06 1.962020867585046819e-15
5.367199592380985514e-06 1.933670842512607939e-15
5.367199691625071228e-06 1.905754258714492263e-15
5.367199790869157789e-06 1.878264501415241169e-15
5.367199890113243503e-06 1.851195059806837041e-15
5.367199989357330065e-06 1.824539525462306756e-15
5.367200088601415779e-06 1.798291590775567800e-15
5.367200187845502340e-06 1.772445047427312919e-15
5.367200287089587207e-06 1.746993785127449475e-15
5.367200386333673769e-06 1.721931789124413335e-15
5.367200485577759483e-06 1.697253140264053188e-15
5.367200584821846044e-06 1.672952012540844980e-15
5.367200684065931758e-06 1.649022671943563583e-15
5.367200783310018320e-06 1.625459475070233357e-15
5.367200882554104881e-06 1.602256867766866615e-15
5.367200981798190595e-06 1.579409383789743082e-15
5.367201081042277157e-06 1.556911643490914206e-15
5.367201180286362024e-06 1.534758352745139134e-15
5.367201279530448585e-06 1.512944300804219339e-15
5.367201378774534299e-06 1.491464360371291767e-15
5.367201478018620861e-06 1.470313485500230097e-15
5.367201577262706575e-06 1.449486710587419961e-15
5.367201676506793136e-06 1.428979149234361143e-15
5.367201775750878850e-06 1.408785993061009963e-15
5.367201874994965412e-06 1.388902510576280729e-15
5.367201974239051973e-06 1.369324046062710018e-15
5.367202073483136840e-06 1.350046018672512209e-15
5.367202172727222554e-06 1.331063920591343804e-15
5.367202271971309116e-06 1.312373317135512596e-15
5.367202371215395677e-06 1.293969844951737519e-15
5.367202470459481391e-06 1.275849211199757014e-15
5.367202569703567952e-06 1.258007192562684285e-15
5.367202668947653667e-06 1.240439634277996401e-15
5.367202768191740228e-06 1.223142449189123707e-15
5.367202867435825942e-06 1.206111616817625352e-15
5.367202966679912503e-06 1.189343182456032969e-15
5.367203065923997371e-06 1.172833256444039641e-15
5.367203165168083932e-06 1.156578012649065044e-15
5.367203264412169646e-06 1.140573688605301847e-15
5.367203363656256207e-06 1.124816584030805321e-15
5.367203462900342769e-06 1.109303060189560259e-15
5.367203562144428483e-06 1.094029539109432475e-15
5.367203661388515044e-06 1.078992502821393716e-15
5.367203760632600759e-06 1.064188492620413028e-15
5.367203859876687320e-06 1.049614108348154018e-15
5.367203959120772187e-06 1.035266007839287781e-15
5.367204058364858748e-06 1.018796920005157840e-15
5.367204157608944463e-06 1.004923505640026842e-15
5.367204256853031024e-06 9.912661912920322133e-16
5.367204356097116738e-06 9.778218667211334106e-16
5.367204455341203299e-06 9.645874762840184650e-16
5.367204554585289014e-06 9.515600183823052476e-16
5.367204653829375575e-06 9.387365449365601769e-16
5.367204753073462136e-06 9.261141608866666567e-16
5.367204852317547003e-06 9.136900238420686053e-16
5.367204951561633565e-06 9.014613431460157611e-16
5.367205050805719279e-06 8.894253802014685496e-16
5.367205150049805840e-06 8.775794475912844737e-16
5.367205249293891554e-06 8.659209088501646386e-16
5.367205348537978116e-06 8.544471781454448347e-16
5.367205447782063830e-06 8.431557199924986819e-16
5.367205547026150391e-06 8.320440490066663162e-16
5.367205646270236105e-06 8.211097296933757755e-16
5.367205745514321820e-06 8.103503763847539839e-16
5.367205844758407534e-06 7.997636526870023729e-16
5.367205944002494095e-06 7.893472720401102595e-16
5.367206043246579810e-06 7.790989972549262211e-16
5.367206142490666371e-06 7.690166406383254718e-16
5.367206241734752932e-06 7.590980640649842734e-16
5.367206340978838646e-06 7.493411791073803666e-16
5.367206440222925208e-06 7.397439472280600677e-16
5.367206539467010922e-06 7.303043800387961347e-16
5.367206638711096636e-06 7.210205397232058966e-16
5.367206737955182350e-06 7.118905390780632087e-16
5.367206837199268912e-06 7.012990350542180676e-16
5.367206936443354626e-06 6.924915211261884384e-16
5.367207035687441187e-06 6.838321557666201723e-16
5.367207134931526901e-06 6.753192652356104973e-16
5.367207234175613463e-06 6.669512300100909075e-16
5.367207333419700024e-06 6.587264858146606986e-16
5.367207432663785738e-06 6.506435247915545638e-16
5.367207531907870605e-06 6.427008969013830656e-16
5.367207631151957167e-06 6.348972110990381849e-16
5.367207730396043728e-06 6.272311374818116584e-16
5.367207829640129442e-06 6.197014088506443876e-16
5.367207928884216003e-06 6.123068228930984258e-16
5.367208028128301718e-06 6.050462445361044540e-16
5.367208127372388279e-06 5.979186085755988431e-16
5.367208226616473993e-06 5.909229226142675987e-16
5.367208325860560555e-06 5.827175874709343914e-16
5.367208425104645422e-06 5.759985887787658617e-16
5.367208524348731983e-06 5.694087372738619259e-16
5.367208623592817697e-06 5.629473702654687408e-16
5.367208722836904259e-06 5.566139183305007023e-16
5.367208822080990820e-06 5.504079111038051273e-16
5.367208921325076534e-06 5.443289836935326436e-16
5.367209020569163095e-06 5.383768838820676936e-16
5.367209119813248810e-06 5.325514802203668893e-16
5.367209219057335371e-06 5.268527711412002703e-16
5.367209318301420238e-06 5.200843135999630682e-16
5.367209417545506799e-06 5.146520563424192117e-16
5.367209516789592514e-06 5.093470849904649551e-16
5.367209616033679075e-06 5.041700332416693331e-16
5.367209715277764789e-06 4.991217311946028314e-16
5.367209814521851350e-06 4.942032246884853711e-16
5.367209913765937065e-06 4.882923625494042494e-16
5.367210013010023626e-06 4.836482424375637310e-16
5.367210112254110187e-06 4.791382791841459960e-16
5.367210211498195054e-06 4.747646335678428479e-16
5.367210310742281616e-06 4.705298308199116605e-16
5.367210409986367330e-06 4.653661181445268865e-16
5.367210509230453891e-06 4.614273276223312971e-16
5.367210608474539606e-06 4.576372956887512726e-16
5.367210707718626167e-06 4.540005353992514613e-16
5.367210806962711881e-06 4.494880860492484902e-16
5.367210906206798442e-06 4.461818522919149077e-16
5.367211005450884157e-06 4.430465813902581823e-16
5.367211104694970718e-06 4.390800054898913751e-16
5.367211203939055585e-06 4.363180859655408571e-16
5.367211303183142146e-06 4.337544605168019418e-16
5.367211402427227861e-06 4.304112210509647273e-16
5.367211501671314422e-06 4.282882350449806772e-16
5.367211600915400983e-06 4.254279353841681804e-16
5.367211700159486697e-06 4.228387551869755270e-16
5.367211799403573259e-06 4.215099446795137991e-16
5.367211898647658973e-06 4.195279122299883605e-16
5.367211997891745534e-06 4.178971587421326066e-16
5.367212097135830401e-06 4.166563533457110203e-16
5.367212196379916963e-06 4.158532145720345829e-16
5.367212295624002677e-06 4.155473253795519997e-16
5.367212394868089238e-06 4.158141116966746844e-16
5.367212494112174952e-06 4.157939512031752147e-16
5.367212593356261514e-06 4.165649403823898778e-16
5.367212692600348075e-06 4.182910357252718630e-16
5.367212791844433789e-06 4.202317087807241748e-16
5.367212891088520351e-06 4.236587731909534451e-16
5.367212990332605218e-06 4.270716548280258609e-16
5.367213089576691779e-06 4.331067970174981438e-16
5.367213188820777493e-06 4.399063435043922994e-16
5.367213288064864055e-06 4.483951289926352128e-16
5.367213387308949769e-06 4.605590579522474543e-16
5.367213486553036330e-06 4.758681622917502024e-16
5.367213585797122044e-06 4.927608109307489738e-16
5.367213685041208606e-06 4.795491346448094909e-16
5.367213784285294320e-06 4.743274270114774018e-16
5.367213883529380034e-06 4.692178248455572629e-16
5.367213982773465748e-06 4.642203759933363235e-16
5.367214082017552310e-06 4.593352565235211022e-16
5.367214181261638871e-06 4.535190285535619977e-16
5.367214280505724585e-06 4.488703596645852859e-16
5.367214379749811146e-06 4.443351709368775591e-16
5.367214478993896861e-06 4.399142725083608440e-16
5.367214578237983422e-06 4.356086730923853195e-16
5.367214677482069136e-06 4.304289876252186622e-16
5.367214776726154850e-06 4.263672579280455560e-16
5.367214875970240565e-06 4.224249927414123984e-16
5.367214975214327126e-06 4.186042311705307593e-16
5.367215074458412840e-06 4.139546515001417801e-16
5.367215173702499402e-06 4.103926043472600743e-16
5.367215272946585116e-06 4.069600882259697527e-16
5.367215372190671677e-06 4.027339001334565065e-16
5.367215471434758238e-06 3.995792759038830463e-16
5.367215570678843953e-06 3.965666303893318654e-16
5.367215669922929667e-06 3.927975545277984519e-16
5.367215769167015381e-06 3.900927429275879957e-16
5.367215868411101942e-06 3.875490539650915334e-16
5.367215967655187657e-06 3.842906652759930528e-16
5.367216066899274218e-06 3.821014813335466473e-16
5.367216166143359932e-06 3.792304545072674879e-16
5.367216265387446493e-06 3.765742082420146520e-16
5.367216364631532208e-06 3.750082743583569270e-16
5.367216463875618769e-06 3.728226616804269899e-16
5.367216563119703636e-06 3.709046923411755921e-16
5.367216662363790197e-06 3.692792583299711024e-16
5.367216761607875912e-06 3.679766073266443996e-16
5.367216860851962473e-06 3.670338359042524906e-16
5.367216960096049034e-06 3.664969322653077666e-16
5.367217059340134748e-06 3.655822429539950784e-16
5.367217158584221310e-06 3.660449988062799158e-16
5.367217257828307024e-06 3.662956994068924546e-16
5.367217357072393585e-06 3.672965555299497566e-16
5.367217456316478452e-06 3.683638205224162188e-16
5.367217555560565014e-06 3.705625390857565432e-16
5.367217654804650728e-06 3.733557927115306208e-16
5.367217754048737289e-06 3.772010209645188897e-16
5.367217853292823004e-06 3.819463013323135427e-16
5.367217952536909565e-06 3.887980387037287079e-16
5.367218051780995279e-06 3.973540590605960317e-16
5.367218151025081840e-06 4.091724883532457567e-16
5.367218250269168402e-06 4.255952476109666192e-16
5.367218349513253269e-06 4.447671069858329412e-16
5.367218448757339830e-06 4.378399316991504240e-16
5.367218548001425544e-06 4.340543043525332283e-16
5.367218647245512106e-06 4.293631092744843508e-16
5.367218746489597820e-06 4.247741818974693068e-16
5.367218845733684381e-06 4.202876464847096388e-16
5.367218944977770095e-06 4.159037508534411796e-16
5.367219044221856657e-06 4.116228771326795862e-16
5.367219143465942371e-06 4.074455539771302184e-16
5.367219242710028932e-06 4.033724704687098756e-16
5.367219341954113799e-06 3.994044920199031692e-16
5.367219441198200361e-06 3.955426783732945370e-16
5.367219540442286075e-06 3.917883046803940019e-16
5.367219639686372636e-06 3.881428853463442581e-16
5.367219738930459198e-06 3.846082018098875986e-16
5.367219838174544912e-06 3.811863347200513166e-16
5.367219937418631473e-06 3.778797014061627505e-16
5.367220036662717187e-06 3.746910996953817851e-16
5.367220135906803749e-06 3.716237593828093536e-16
5.367220235150888616e-06 3.678347262439428207e-16
5.367220334394975177e-06 3.650281019114881043e-16
5.367220433639060891e-06 3.623553786083638495e-16
5.367220532883147453e-06 3.598222351900967322e-16
5.367220632127233167e-06 3.574352269136499617e-16
5.367220731371319728e-06 3.552019364716997725e-16
