# SHIPS
# https://arxiv.org/pdf/1502.04490.pdf
# mass [eV]  kinetic mixing
1.963462627182700380e-04 3.562911195856415815e-06
2.153211616174840787e-04 3.039433342370549068e-06
2.332900094642844019e-04 2.609529967437221607e-06
2.519200405828159032e-04 2.263167855242923289e-06
2.720344403867860569e-04 1.961929768509959361e-06
2.937585172186923835e-04 1.701523432090166036e-06
3.323171371011612038e-04 1.362115754001115357e-06
3.759385817316533858e-04 1.078689445027591335e-06
4.115416382435293932e-04 9.175417792060973474e-07
4.457615100296097223e-04 7.841228882038957101e-07
4.859862710710789323e-04 6.694330259738716257e-07
5.255264232761636947e-04 5.775457484258627694e-07
5.674620416356721464e-04 4.999146095042046448e-07
6.127783220822057616e-04 4.335610967163389708e-07
6.626395781844606186e-04 3.741523650182413324e-07
7.224282306568755464e-04 3.193221855859564437e-07
7.887751540595859664e-04 2.719111828101233316e-07
8.599634946468382932e-04 2.322396102761370109e-07
9.312785281585591072e-04 1.997148730953329241e-07
1.015381848205716264e-03 1.708910395857376567e-07
1.111031782005625791e-03 1.461311397841992505e-07
1.226907452932718195e-03 1.248215430144830334e-07
1.298708657937829199e-03 1.080504468026705972e-07
1.424667937859401155e-03 9.245319783425807644e-08
1.561674557209625320e-03 7.838869439166439828e-08
1.721228142434275523e-03 6.650761143412153204e-08
1.905313062243964382e-03 5.614325573503115088e-08
2.119869087139247127e-03 4.777757457690145732e-08
2.401167681257529180e-03 4.100891315162068646e-08
2.729404613240698184e-03 3.586074547404534472e-08
3.062938581126788476e-03 3.322672046501480189e-08
3.302599259641709854e-03 3.347195137190547682e-08
3.465011367753031198e-03 3.450244398269698575e-08
3.588462548435590940e-03 3.598924094035128432e-08
3.666184593490189134e-03 4.001109969413365537e-08
4.028715935880479437e-03 3.843489304661367432e-08
4.174823343500206826e-03 3.402699867011068434e-08
4.285286007993559070e-03 3.006171273879246871e-08
4.426814972292565306e-03 2.649426725698739865e-08
4.601034050753855485e-03 2.385552244222365469e-08
4.753782715672583495e-03 2.107591151121254852e-08
5.131825409318460651e-03 1.896105549679935995e-08
5.642572496622642528e-03 1.880953547116713762e-08
6.086675286170560931e-03 1.968251522432049895e-08
6.397152889722083902e-03 1.713466853270063944e-08
6.655178150594498118e-03 1.523194591605596079e-08
7.051659619190421210e-03 1.360423940389751537e-08
7.941080732481849147e-03 1.357609076333305488e-08
8.338585018610216587e-03 1.220063190220406541e-08
8.840603215448990942e-03 1.081676454779805388e-08
9.554169558462367873e-03 1.076353803132550973e-08
1.031195457519186627e-02 9.483586467360807583e-09
1.133674810085152050e-02 9.037347509467313775e-09
1.267741972133271978e-02 7.869819397107489024e-09
1.441070327946653712e-02 7.238231184235193293e-09
1.666763701800672709e-02 6.216504386022296575e-09
1.903434756053773783e-02 5.668964251861570326e-09
2.155521000799029072e-02 5.143516284111915250e-09
2.440992931388070650e-02 4.666771316512883738e-09
2.764272066418190302e-02 4.234215139534198205e-09
3.130340712582924817e-02 3.840695007048651508e-09
3.544887312612215319e-02 3.483747908659913730e-09
4.014331733477762704e-02 3.159974814146616210e-09
4.546016008761591398e-02 2.867870406619179153e-09
5.148038489105537935e-02 2.601335829330716036e-09
5.829878280866360174e-02 2.360871361764470334e-09
6.601868553231367287e-02 2.140867176417098322e-09
7.476144682849271417e-02 1.941898936227415670e-09
8.466267003710355177e-02 1.761907176836665522e-09
9.586835478015907908e-02 1.594644649822193826e-09
1.085503122413835897e-01 1.440087268724813380e-09
1.229157436020815730e-01 1.302658882967994454e-09
1.391822806705177995e-01 1.178345369915005354e-09
1.575990178813042319e-01 1.065308746843435903e-09
1.784540890419543668e-01 9.633805781201986971e-10
2.020689108594473371e-01 8.712048418350306050e-10
2.288068692535757676e-01 7.876316757337114935e-10
2.590828207810641493e-01 7.120755381850411118e-10
2.933625932603926567e-01 6.435902547473304918e-10
3.321779918290616584e-01 5.816916798763822231e-10
3.761231778113365287e-01 5.254570743609898053e-10
4.258685634923062291e-01 4.741367653502910762e-10
4.821855496020586163e-01 4.275934269051756991e-10
5.459412648846488914e-01 3.854068304524992367e-10
6.181171229010177237e-01 3.471912671322894507e-10
6.998294081841278658e-01 3.126789737688028010e-10
7.922934972413696597e-01 2.809781561841470422e-10
8.969671864533362848e-01 2.524218457617033132e-10
1.015429615080918113e+00 2.264559911582534338e-10
1.149500964138133297e+00 2.029376792088021618e-10
1.301253697367286577e+00 1.817617782208730756e-10
1.472946939055083782e+00 1.624375503948788389e-10
1.667267752138933190e+00 1.450879348628917796e-10
1.887120038232127817e+00 1.293420269533856096e-10
2.135929059422235543e+00 1.152415324882005111e-10
2.417408531727614385e+00 1.024806527896070119e-10
2.735830611495531528e+00 9.095744181852402970e-11
3.096023771958411164e+00 8.057458685981499161e-11
3.503333977271839039e+00 7.116122752908226545e-11
3.964260950345559475e+00 6.286490669330707030e-11
4.485156376020911217e+00 5.524622508170141922e-11
5.074375806153292423e+00 4.851080035653635601e-11
5.740592460528634255e+00 4.249117748276488865e-11
6.494225519667112145e+00 3.720827974502133936e-11
7.347436529540649630e+00 3.268096890243155962e-11
8.333571494613023489e+00 2.872965115851090770e-11
9.313473722895020401e+00 2.533835034916223968e-11
1.064444203617944673e+01 2.243248815656855765e-11
1.204481560904146242e+01 1.981174779748270341e-11
1.362942111598747275e+01 1.749718301650499011e-11
1.542225171328781386e+01 1.544452218888416615e-11
1.744884082811566017e+01 1.357651521718791128e-11
1.974486424187755063e+01 1.200030146083064421e-11
2.234548921748141836e+01 1.064802371488298559e-11
2.548881437944058348e+01 9.408933361498451389e-12
2.833985101275858653e+01 8.671664565398691319e-12
3.490304714363993810e+01 7.338522839541820761e-12
3.603842318605741468e+01 7.624017585611973057e-12
3.628876985879469430e+01 8.506758984882411403e-12
3.698323446996241159e+01 8.997753268619412268e-12
4.180932178702602897e+01 8.255736409689737545e-12
4.593042070296024093e+01 8.107822268520510671e-12
4.734961085443057982e+01 8.550059909488586751e-12
