# Solar luminosity https://arxiv.org/pdf/2304.12907.pdf
# mass [eV] kinetic mixing [dimensionless]
0.00043554370209692155	8.655264711434974e-7
0.000489350866118739	6.539761802769669e-7
0.0005483558739965734	5.09662699827586e-7
0.0006227190905508432	3.9873832095005e-7
0.000696044395153922	3.1508886882340043e-7
0.0007831372660608664	2.509361667705346e-7
0.0008819210071130241	1.9790614658514836e-7
0.000993165178691418	1.5593988913957994e-7
0.0011184415205099491	1.232109806151007e-7
0.00125952002913432	9.744054218840179e-8
0.0014183939657991325	7.67781476661838e-8
0.0015973080186729128	6.049724094979412e-8
0.0017987900174683258	4.775619057853796e-8
0.0020256866484849676	3.773304639428414e-8
0.0022812036746932387	2.9731704513238498e-8
0.0025689512291182746	2.3470044661000804e-8
0.0028929948214622934	1.852712467743314e-8
0.003257912778624541	1.4638622690320824e-8
0.0036688609306808704	1.1545061221105301e-8
0.004131645456254171	9.096915876507334e-9
0.004691942993599073	7.098995731882806e-9
0.0052444202733330295	5.62398804990042e-9
0.005900630740692882	4.478933224379573e-9
0.006644927308349379	3.5324059766152473e-9
0.007483108310563831	2.783354665300267e-9
0.008427016186809026	2.1991798224526073e-9
0.0094899871638221	1.7392059798549515e-9
0.010687039679653234	1.3716617975825257e-9
0.01213632231472372	1.0704090681735124e-9
0.013565376833834509	8.48851124221062e-10
0.015262750768053135	6.772074182696588e-10
0.017332551228667267	5.294447095306423e-10
0.019373462801277438	4.19857931197129e-10
0.021980931165213567	3.3244208358491315e-10
0.024569190458377098	2.653202629456417e-10
0.02791843779796966	2.0941244522653973e-10
0.03206871388949117	1.6044655758307258e-10
0.03683595829996015	1.2428975662388987e-10
0.04231188779669316	9.711663878952798e-11
0.04860185350252958	7.61231604460218e-11
0.05582686774060592	5.96677935780825e-11
0.06448971291790054	4.7212579968748607e-11
0.07513162011045761	3.7254714000389674e-11
0.08956444109083808	2.8610984114528676e-11
0.10582276419938083	2.29990016489102e-11
0.12822887729942517	1.8086630865723066e-11
0.15324049111078003	1.4164515187750431e-11
0.1831307316294995	1.1229322424520253e-11
0.21885119673044834	8.956932228542657e-12
0.264141072872587	7.0731461232057004e-12
0.32197508433426125	5.546774717452419e-12
0.392471923448501	4.364168697483044e-12
0.4784041318410031	3.4412635639103517e-12
0.583151302522601	2.7314959026055094e-12
0.7179048618930013	2.127954019630628e-12
0.8837970326056772	1.6724207233885478e-12
1.0880232692434635	1.3115155298432825e-12
1.3527674491167634	1.0296248991618387e-12
1.68193072990279	8.083224398423221e-13
2.0911879436767493	6.416042803488441e-13
2.600028014252257	5.169683859075206e-13
3.2326820242712193	4.241091647733176e-13
4.019277105001376	3.4897486865033247e-13
4.997271097342191	2.932448606953801e-13
6.213236302930417	2.4033100748555416e-13
7.7250772679881825	1.892423049935561e-13
9.24851959907872	1.4650214611865204e-13
10.210932030406035	1.1640211684849464e-13
11.565985799454616	8.874397900495933e-14
13.330392476413659	7.259168266849494e-14
15.991992885093758	5.612517586416515e-14
18.098560878445912	4.504196722776932e-14
22.28074393677488	3.658741325110107e-14
26.891603499467173	2.8674391662834517e-14
29.866852222717082	2.353820141382169e-14
36.91431588103571	1.9242743295643768e-14
45.44440993239911	1.5209875215591447e-14
55.39451915364545	1.18752494433636e-14
67.52321697714243	9.322842339583984e-15
82.30750804598705	7.359400668739913e-15
100.32883775418306	5.790331799432058e-15
121.09125853714163	4.573650226151971e-15
146.15033147334134	3.600279876540922e-15
179.92248851732444	2.821370805338544e-15
223.70227982307773	2.3779309984826365e-15
278.13482578207027	2.5098632819635524e-15
310.74755113549656	2.9961258980985478e-15
313.2183287621316	3.996222798015883e-15
319.481563232644	5.098313361182431e-15
325.8700397545653	6.4941292257417405e-15
334.86330070809817	8.486035299659289e-15
344.29405581419246	1.131281754209603e-14
346.435210592771	1.5442820437524108e-14
363.35983031289663	2.5256254147903875e-14
378.66113509237664	3.73943617644439e-14
385.5962596321559	5.0695603359176275e-14
421.528225397326	6.487167647578185e-14
513.8223466936691	8.227495755235293e-14
629.0861498002768	9.60363041499977e-14
769.5291889272003	1.1523242647871453e-13
949.2281422127737	1.3269385846960434e-13
1180.1998807101638	1.577539677423742e-13
1467.373012331177	1.9095309356760506e-13
1824.4227884705715	2.3675310927077873e-13
2246.0071414153335	2.9806369573570366e-13
2732.3579787958724	3.7592756068393734e-13
3262.5470250142334	4.641800066685186e-13
3871.4489343685063	5.985663870225171e-13
4523.932468063939	7.809381602159491e-13
5170.658565022584	1.0097814511959832e-12
5867.388215165154	1.300740533341546e-12
6595.60938351334	1.6907489685554327e-12
7295.075402500979	2.1681192757792072e-12
7974.870377346063	2.755638018816545e-12
8641.633945058913	3.5467305627574673e-12
9519.927178205739	4.6465491338307174e-12
10474.908968740612	6.044281701218066e-12
11202.97833463125	7.868584790291547e-12
11888.563848276734	1.008428077372216e-11
12616.10494573944	1.297136166976623e-11
13388.169171079639	1.66849998867868e-11
14160.67594289032	2.146511378510368e-11
15149.472298592009	2.8079550514698153e-11
15720.474756791706	3.7334479276954696e-11
16673.343791381256	5.0831391511805127e-11
17746.323678682515	7.01614624335664e-11
18317.500452416283	9.181142508691262e-11
19057.392408112602	1.1726958388343807e-10
20190.302336454828	1.5753197091812562e-10
21063.68456458567	2.207313056986419e-10
21803.899906992643	3.016693933930305e-10
22684.616693974633	4.1776397769148926e-10
23600.90794525799	5.798105759984646e-10
24355.159780165803	7.906750721390263e-10
25732.14999154727	1.0967669102345173e-9
26290.04077996959	1.508856255876893e-9
27761.15302249745	2.134492090572946e-9
28992.67911305767	3.3205895307315943e-9
29460.044494552378	4.6334419593190725e-9
30650.01307091999	6.7162691588442426e-9
31888.047603637668	1.0660138766322743e-8
33176.08960293146	1.6919893445249007e-8
34332.65934706676	2.6617914666995707e-8
35910.3573233385	4.1436531378450524e-8
37360.87097713871	6.479404053404353e-8
38869.974687309455	1.0276106895193e-7
39647.23368837637	1.4895427722874535e-7
40306.80905368692	1.9628021232161553e-7
41211.5841902467	2.736531003676636e-7
42156.89851785282	3.8338727605175653e-7
42914.83250954634	5.1980646278108e-7
43540.262011654886	7.345074733686654e-7
43540.262011654886	1e0
