# XENON1T solar dark photon SE search
# WARNING: THIS WAS CORRECTED IN ERRATUM TO PAPER, S2 LIMIT IS NOW MORE STRINGENT
# https://journals.aps.org/prd/pdf/10.1103/PhysRevD.106.022001
# mass [eV] kinetic mixing
0.009998163389641584	 2.4512769397589e-10
0.011165409971680317	 2.222154667515136e-10
0.012468928039809457	 1.9896971537626963e-10
0.013924626758559473	 1.7815568023076904e-10
0.015550272625372652	 1.5964228832195574e-10
0.017365706306976796	 1.4294225840254008e-10
0.019393084790559855	 1.2798920293607716e-10
0.021657151805149814	 1.1460037256499126e-10
0.02418553981363598	 1.0269145331277607e-10
0.027009107261181022	 9.194899678187843e-11
0.030162315196069687	 8.233029854434858e-11
0.03368364785957295	 7.371780330002958e-11
0.03761608237803829	 6.600625309836049e-11
0.042007613289699736	 5.910140092417912e-11
0.0469118383079473	 5.295976459660355e-11
0.05238861247017354	 4.741969333738411e-11
0.05850477865594681	 4.245916373192794e-11
0.06533498339033206	 3.801755047187141e-11
0.07296258788906752	 3.404057020544766e-11
0.08148068546471322	 3.050317854778845e-11
0.09099323771099821	 2.731226967433247e-11
0.10161634333226063	 2.4455158782708076e-11
0.11347965510377465	 2.1896927579384e-11
0.12672796225667116	 1.9606310540736232e-11
0.14152295760012462	 1.7555312800217006e-11
0.15804521094816476	 1.573101853392561e-11
0.17649637293637177	 1.4085411452363188e-11
0.1971016361255742	 1.2611949782812599e-11
0.22011248342980777	 1.1292625555322357e-11
0.24580975741251576	 1.0111314596772882e-11
0.27450708791111417	 9.053579468658282e-12
0.30655471982335286	 8.106493019361834e-12
0.3423437877728096	 7.2584803944622554e-12
0.38231108982490475	 6.499177574193544e-12
0.4269444185156479	 5.8238029728327565e-12
0.47678851425719326	 5.210552706332371e-12
0.5324517137802793	 4.669088049191461e-12
0.5946133747563941	 4.1742034032658044e-12
0.6640321672156158	 3.714511424389892e-12
0.7415553329551579	 3.3491498038204577e-12
0.8281290259477397	 3.0011164276230895e-12
0.9248098599523163	 2.6871724553851105e-12
1.0327778042633122	 2.4060698673724755e-12
1.1533505849882975	 2.1543731572107564e-12
1.287999767618651	 1.929006203622322e-12
1.4383687171776418	 1.7285497949580965e-12
1.6062926551457373	 1.5465323696842418e-12
1.7938210579537248	 1.3858214688443528e-12
2.0032426704125577	 1.2389358758335297e-12
2.237113439363556	 1.099943032066554e-12
2.4982877084733612	 9.757891419958792e-13
2.7899530548994953	 8.656488762405701e-13
3.1156691930008082	 7.561640860580562e-13
3.4794114199043378	 6.493930877428396e-13
3.8856191331727143	 5.551186561341196e-13
4.339250012719961	 4.615122834015389e-13
4.821579926336871	 3.854136077113817e-13
5.2142689837423015	 3.2682496235186747e-13
5.759896895584742	 2.691828599523158e-13
6.368096837271726	 2.219225594997225e-13
7.019967235879191	 1.8502192351625437e-13
7.629227543143539	 1.534236159315947e-13
8.406135827736131	 1.2747000760466248e-13
9.274342376451731	 1.0803907563177107e-13
10.391798903442481	 9.243799694230164e-14
11.605000896504933	 8.54322450212428e-14
12.959839490664727	 7.667278540570936e-14
14.400392176888744	 6.467664786310334e-14
15.391902472449184	 5.382880639831914e-14
16.65662454537875	 4.4929110573823746e-14
18.025266320542478	 3.6678593250670684e-14
19.348356238324342	 3.050542214929687e-14
21.623892075304752	 2.7225131847402788e-14
24.148397140047344	 2.625414868081623e-14
26.96762832531055	 2.6072204887075947e-14
30.11599375620773	 2.5791684198808267e-14
33.63191857226475	 2.53373659873086e-14
37.55831389818557	 2.481423692724463e-14
41.9431005651263	 2.417081840696302e-14
46.839793974385046	 2.3344816008753146e-14
52.30815724164705	 2.2547041035463544e-14
58.41493059327223	 2.1726107716778027e-14
65.23464591675544	 2.085433875023211e-14
72.85053640677559	 1.998663898862304e-14
81.35555240887416	 1.9393327038765196e-14
90.85349585891979	 1.9303624807688164e-14
101.46028716395736	 2.00330232338866e-14
113.30537998645464	 2.194544595905342e-14
126.5333411990918	 2.500671705305028e-14
141.30561529311186	 2.8123163073280104e-14
157.8024947744622	 3.0148517785747945e-14
176.22532059600348	 3.102289058560366e-14
196.7989394815953	 3.2095754226445424e-14
219.7744481331874	 3.480831651986777e-14
245.96075648686457	 3.9596083257118794e-14
262.50661919961937	 4.746604524256198e-14
274.0855167060628	 5.817399747007819e-14
279.92457431383576	 7.198769619788924e-14
286.7502560147328	 9.531860323530289e-14
288.1930888449024	 1.2465745825418672e-13
