# Casimir effect https://arxiv.org/pdf/2009.04517.pdf
# mass [eV] g_an
1e-30 3.769429429476308605e-03
1.057454877715788928e-03 3.769429429476308605e-03
1.251612629534713242e-03 3.803944359376552897e-03
1.481419403724037803e-03 3.724493374473557793e-03
2.382274173446975295e-03 3.978294891594346371e-03
2.819680068941900555e-03 4.029998664524871675e-03
3.337397424614763249e-03 4.085476441965312649e-03
3.950172110839840836e-03 4.151166506848425614e-03
4.675457465800029674e-03 4.221117825863631746e-03
5.533911409712633477e-03 4.298773398935080807e-03
6.549984833475029460e-03 4.384513252080259917e-03
7.752618020493497707e-03 4.471963202905661697e-03
9.176064937511224304e-03 4.585473662327020986e-03
1.086086887227587922e-02 4.687601368074931218e-03
1.285501720662020342e-02 4.813892755677416646e-03
1.521530821574805514e-02 4.954864518157690162e-03
1.800896882354915615e-02 5.107718024050796751e-03
2.131556939161346684e-02 5.289337908953357752e-03
2.522929007987177730e-02 5.477415821185676985e-03
2.986160333041593118e-02 5.689441338972599065e-03
3.534444887827140058e-02 5.950212010611541889e-03
4.183399172127909987e-02 6.222934882675030567e-03
4.951507008536045612e-02 6.537885979474492189e-03
5.860646007421460579e-02 6.910642932242820093e-03
6.936710695368680790e-02 7.338019051642330481e-03
8.210350055319746987e-02 7.833365010130537154e-03
9.717840485389624139e-02 8.406728856029657346e-03
1.150211904037992533e-01 9.090850151477158220e-03
1.361400638526390483e-01 9.875548529430460895e-03
1.611365429338185162e-01 1.083443760900756024e-02
1.907225891767414805e-01 1.197706208832781394e-02
2.257408863315379377e-01 1.339190631393000555e-02
2.671888420858474222e-01 1.512247659898596081e-02
3.162469967019090333e-01 1.731176101673323822e-02
3.743126477221810910e-01 2.006030940011550509e-02
4.430396484582471150e-01 2.356523713193633962e-02
5.046758033997086335e-01 2.732738475512828599e-02
5.748868468622949646e-01 3.210201244186951935e-02
6.712351007379705470e-01 3.892345407851662692e-02
7.658279351981194250e-01 4.621564184783453350e-02
8.600450280001151748e-01 5.714176863268850826e-02
1.215459216792291075e+00 1.002568358720047070e-01
1.305088342919988653e+00 1.257634301146244582e-01
1.409017269394078342e+00 1.516478902535461915e-01
1.521222433884278358e+00 1.837788662067339207e-01
1.617386619101694567e+00 2.137240377686559500e-01
