# MAGIS-100 Initial configuration
# https://iopscience.iop.org/article/10.1088/2058-9565/abf719
# mass [eV] 	g_B-L
4.14125e-24 2.22187754260454e-26
4.14129273290714e-18 2.22187754260454e-26
4.14452641311114e-18 2.22187765905508e-26
4.1477626182966794e-18 2.22187777568758e-26
4.15424261150028e-18 2.22187800949951e-26
4.16723298453959e-18 2.22187847931915e-26
4.19333572085935e-18 2.22187942780579e-26
4.246032725025751e-18 2.22188136068883e-26
4.35342176097114e-18 2.22188537435499e-26
4.595686632598079e-18 2.22189479720307e-26
4.8340536188674e-18 2.22190456642693e-26
5.07974287806083e-18 2.22191515269247e-26
5.36039566525948e-18 2.22192788757576e-26
5.63629033484411e-18 2.22194107401452e-26
5.95133936059861e-18 2.22195694115052e-26
6.27776834923072e-18 2.22197429169788e-26
6.59837886798672e-18 2.22199223480007e-26
6.96456604308084e-18 2.22201382196419e-26
7.32474087491127e-18 2.22203619207559e-26
7.69590469853944e-18 2.22206042486031e-26
8.11992367489822e-18 2.22208957445915e-26
8.53661322038109e-18 2.222119743369e-26
9.01247582500587e-18 2.22215604333776e-26
9.50543140422994e-18 2.22219572398033e-26
9.989435410185841e-18 2.2222367403952e-26
1.05422886855458e-17 2.22228608439732e-26
1.1085882156461501e-17 2.2223371942779e-26
1.1706591425355002e-17 2.22239869833124e-26
1.23497986216386e-17 2.22246596818721e-26
1.29816735111191e-17 2.22253555816842e-26
1.3703337031698299e-17 2.22261928705191e-26
1.44132987271591e-17 2.22270608139755e-26
1.51450129021235e-17 2.22280012634178e-26
1.59808824808631e-17 2.22291326187345e-26
1.68024750709622e-17 2.22303039388085e-26
1.77406942841906e-17 2.22317134301039e-26
1.87127310420263e-17 2.22332546035233e-26
1.96673175852264e-17 2.22348482355483e-26
2.07576381202851e-17 2.22367656328503e-26
2.1829919474682403e-17 2.2238752393761e-26
2.2934830894567e-17 2.22409045125806e-26
2.41971268518174e-17 2.22434935291846e-26
2.54374429129516e-17 2.22461729227741e-26
2.68539362109263e-17 2.22493972095218e-26
2.82477490083723e-17 2.22527409710206e-26
2.96844461101048e-17 2.22563653429926e-26
3.1325564369752e-17 2.22607263023104e-26
3.29389878629698e-17 2.22652434558239e-26
3.47813509610275e-17 2.22706804120602e-26
3.6690349978479304e-17 2.22766279130398e-26
3.8565472248237e-17 2.22827811827699e-26
4.0707113081830094e-17 2.22901868549863e-26
4.28137575286677e-17 2.2297865019779e-26
4.49847796948655e-17 2.23061866747423e-26
4.74649143018374e-17 2.23162017247135e-26
4.99023727589095e-17 2.23265736829863e-26
5.26859167361135e-17 2.23390611158535e-26
5.55695778659891e-17 2.23527219277921e-26
5.84011025085872e-17 2.23668544566508e-26
6.16353468747062e-17 2.23838703712908e-26
6.481567299494291e-17 2.24015131453346e-26
6.84471036182851e-17 2.24227657419606e-26
7.221032960449298e-17 2.24460394690204e-26
7.59075494160056e-17 2.24701482872928e-26
8.01300594546592e-17 2.24991958513504e-26
8.428442933780961e-17 2.25293565187327e-26
8.856628898236708e-17 2.25620926264034e-26
9.34575507025955e-17 2.26015480419428e-26
9.82656506455382e-17 2.26424866348157e-26
1.0375616795903999e-16 2.26918649296562e-26
1.09444848446545e-16 2.27460044864684e-26
1.15031853237869e-16 2.28021517303295e-26
1.21413159110247e-16 2.28699212928167e-26
1.27689384596339e-16 2.29403983978085e-26
1.34156907807428e-16 2.30170335729851e-26
1.41545522445977e-16 2.31096236679567e-26
1.48806061965172e-16 2.32059147450126e-26
1.57097748836423e-16 2.33224110660285e-26
1.65257314757418e-16 2.34439594210897e-26
1.73668331899508e-16 2.35765550104354e-26
1.83275926825937e-16 2.37372627633157e-26
1.92722139208198e-16 2.3905096041392e-26
2.0350854125713098e-16 2.41089490021006e-26
2.14685585661297e-16 2.43342926715159e-26
2.25665164364932e-16 2.45700551354073e-26
2.38205074883021e-16 2.48573579411177e-26
2.50541047257348e-16 2.51594244808025e-26
2.63254605929361e-16 2.54916965731113e-26
2.77778046070435e-16 2.5898424941869e-26
2.92052716893064e-16 2.63277340573242e-26
3.0835389108995995e-16 2.68557289610836e-26
3.25242152613813e-16 2.74476714549661e-26
3.4182640862728803e-16 2.80763123378411e-26
3.60769029310103e-16 2.88558050870896e-26
3.79397334473099e-16 2.96911278423333e-26
3.98591941432671e-16 3.06290794051509e-26
4.2052091736069107e-16 3.18053090312427e-26
4.42066987399999e-16 3.30805137287722e-26
4.58513343425226e-16 3.41628090296534e-26
4.66673795384672e-16 3.46981106480975e-26
4.90885425505633e-16 3.64779587245592e-26
5.15841254698733e-16 3.85339222982115e-26
5.44348282066689e-16 4.11978913518029e-26
5.72372860112272e-16 4.41976724699382e-26
6.04374398868628e-16 4.81705776374901e-26
6.37532453425433e-16 5.30298442135032e-26
6.47908691990009e-16 5.47319752529892e-26
6.4896114235158e-16 5.49098416402044e-26
7.07297962178175e-16 6.52255301830469e-26
7.43885816978406e-16 7.21481768631738e-26
7.81590660832363e-16 7.96473860167505e-26
8.246644907523151e-16 8.86680982075197e-26
8.669950534586261e-16 9.80045059325345e-26
9.15336530289346e-16 1.09238164535921e-25
9.65415309713691e-16 1.21518155150671e-25
1.01458622119344e-15 1.34211807190699e-25
1.07075124662304e-15 1.49482372351917e-25
1.12597723260669e-15 1.65299683688657e-25
1.18903730352956e-15 1.84333285586418e-25
1.25438416208869e-15 2.05151136958406e-25
1.31858167464076e-15 2.26687136085653e-25
1.3919010416555e-15 2.52597776873132e-25
1.4640337067773e-15 2.79456976277407e-25
1.53837779555151e-15 3.08559420277503e-25
1.62330370651511e-15 3.43567729523096e-25
1.7067815889433802e-15 3.79812018602936e-25
1.80210864077245e-15 4.23423290049784e-25
1.90087342825645e-15 4.71106616742284e-25
1.99786814526155e-15 5.20410977638086e-25
2.10865386029795e-15 5.79726822930278e-25
2.21760994170399e-15 6.41184660829058e-25
2.32988366112098e-15 7.07752277989602e-25
2.4581487625824e-15 7.87823857581214e-25
2.58418427838641e-15 8.7068239715772e-25
2.72812112380369e-15 9.70376121140221e-25
2.8697575581525e-15 1.07375010924877e-24
3.0157544662856e-15 1.18578175457265e-24
3.1825233691826696e-15 1.32055351939233e-24
3.34648293520881e-15 1.46012498931838e-24
3.53370652549285e-15 1.62807257734806e-24
3.72770514847529e-15 1.81174016025413e-24
3.91826694331921e-15 2.00170855260121e-24
4.13591245385422e-15 2.2302599159446e-24
4.35000790478317e-15 2.46713489853528e-24
4.57065000001864e-15 2.72375936668725e-24
4.82270543632901e-15 3.03245439069915e-24
5.07043125395666e-15 3.35198913260874e-24
5.35332871248808e-15 3.73646249187933e-24
5.64640642426436e-15 4.15678033250235e-24
5.9341941438122606e-15 4.59130670951781e-24
6.262910659243759e-15 5.1140531500331e-24
6.58615692323137e-15 5.65557742775439e-24
6.955250594519849e-15 6.30722564412856e-24
7.33774645468684e-15 7.02001769439476e-24
7.71354490571359e-15 7.75748293080918e-24
8.14273260544402e-15 8.64476419121779e-24
8.56500708373712e-15 9.56463182583741e-24
9.000248295565072e-15 1.0561407162032e-23
9.49743008949473e-15 1.17604791172949e-23
9.98617360412981e-15 1.30020259293025e-23
1.05442809351914e-14 1.44959519654003e-23
1.11225415412514e-14 1.61294989727397e-23
1.16904841160879e-14 1.78187730562208e-23
1.23391659814267e-14 1.98510926681999e-23
1.29771853619124e-14 2.19570413770515e-23
1.36346634030685e-14 2.42382715308554e-23
1.43857723831061e-14 2.69823128332263e-23
1.5123884066519e-14 2.98221866101544e-23
1.59668169013147e-14 3.32391182420949e-23
1.68400184051847e-14 3.69741269416908e-23
1.76973471593541e-14 4.08346788975194e-23
1.86766349026322e-14 4.54789115921716e-23
1.96395023852342e-14 5.02890884568882e-23
2.0738969867237e-14 5.60773090830451e-23
2.18782757987967e-14 6.24078167741185e-23
2.29974877750312e-14 6.89562439823681e-23
2.42757441084508e-14 7.68347895608799e-23
2.55332499649215e-14 8.50011884927951e-23
2.6829269880764898e-14 9.38491865298785e-23
2.83097778714519e-14 1.04492646266984e-22
2.97649708160802e-14 1.15511101812525e-22
3.14267384231798e-14 1.28769030466815e-22
3.3148384802864906e-14 1.43264156690426e-22
3.48390917406314e-14 1.58250996354234e-22
3.67702114569829e-14 1.76280818804959e-22
3.86693455612795e-14 1.94960418570136e-22
4.06262492023923e-14 2.15192068721766e-22
4.28619064959741e-14 2.39527716021442e-22
4.50585936549985e-14 2.64708611223901e-22
4.75673142661138e-14 2.95005468439237e-22
5.00358199708633e-14 3.26418561686473e-22
5.2580247095099096e-14 3.60460806176424e-22
5.54867227440553e-14 4.01412556352113e-22
5.83440963847775e-14 4.43819766207853e-22
6.16069362909263e-14 4.94848237835435e-22
6.49877523816852e-14 5.5065024699684e-22
6.83085102584804e-14 6.08362494646499e-22
7.210127774125e-14 6.7779557083374e-22
7.58319982209429e-14 7.49752296059428e-22
7.96766838240087e-14 8.27704478082103e-22
8.40688004874798e-14 9.2147276972386e-22
8.838525986344911e-14 1.0185268696462e-21
9.33146186981628e-14 1.13530402056012e-21
9.84212190006879e-14 1.2629619999973e-21
1.0343539692045e-13 1.39492601866337e-21
1.09162753409797e-13 1.55368068584719e-21
1.14794523333909e-13 1.71812652389436e-21
1.21225143567922e-13 1.91601197263667e-21
1.27889078023863e-13 2.132454223995e-21
1.3443600480027e-13 2.35637279121264e-21
1.41913133301559e-13 2.62577786034213e-21
1.49269463567246e-13 2.90505760455178e-21
1.5685146034402098e-13 3.20767188257734e-21
1.65512581056861e-13 3.57169879121839e-21
1.74026284396228e-13 3.94859416830273e-21
1.8374838665659498e-13 4.40209969101923e-21
1.938212690075e-13 4.89796491299135e-21
2.0371392782913e-13 5.41070989847493e-21
2.15013071261239e-13 6.02757370658357e-21
2.2612594490024997e-13 6.66674115741274e-21
2.37577406903756e-13 7.35907247257967e-21
2.5065982454975e-13 8.19185519832507e-21
2.63515227604635e-13 9.0536611771087e-21
2.78196429795829e-13 1.00905748606935e-20
2.92643430765474e-13 1.11658133390655e-20
3.07535473710742e-13 1.23311403437885e-20
3.24546184027251e-13 1.37330126000149e-20
3.41270845005444e-13 1.51848735549519e-20
3.60368414353461e-13 1.69319213301522e-20
3.80157410882964e-13 1.88425521784454e-20
3.99596425948512e-13 2.0818814456169e-20
4.2179806158422894e-13 2.31964734024527e-20
4.43638221588504e-13 2.56608309510102e-20
4.66146623771247e-13 2.8330738167493e-20
4.91859405777426e-13 3.15424022485369e-20
5.17131282681588e-13 3.48669873944286e-20
5.45991007659712e-13 3.88672473658252e-20
5.7588979286947e-13 4.32405855624562e-20
6.05249812973383e-13 4.77619590709704e-20
6.38785128882613e-13 5.32013188414945e-20
6.71763374738244e-13 5.88363127974642e-20
7.05743778153994e-13 6.49391979531132e-20
7.44565046716964e-13 7.22799916097359e-20
7.827077298103951e-13 7.9875216795189e-20
8.26268985197915e-13 8.90134650150301e-20
8.69129861628595e-13 9.84877345324889e-20
9.13307666593861e-13 1.08754443596823e-19
9.63772178414116e-13 1.2110486076151e-19
1.01338170340883e-12 1.33893323569433e-19
1.0700315494078e-12 1.49281493030552e-19
1.12872805079905e-12 1.6610834092021e-19
1.18637898482785e-12 1.83509982808005e-19
1.25222515133498e-12 2.04445543966311e-19
1.3169909528196198e-12 2.26140520473851e-19
1.38373323430623e-12 2.49641939528066e-19
1.45997965066024e-12 2.77911430359151e-19
1.53490897314971e-12 3.07169474188959e-19
1.6204785912735e-12 3.42372914507491e-19
1.70912246175709e-12 3.80854567145428e-19
1.7961576717646102e-12 4.20631429026079e-19
1.89557330384943e-12 4.68483146281097e-19
1.99332494450851e-12 5.18046814339945e-19
2.10494362886805e-12 5.77688528813679e-19
2.2206087626824e-12 6.42919950748773e-19
2.33423738508021e-12 7.10399823944379e-19
2.46401213288054e-12 7.91586699147215e-19
2.59168404577591e-12 8.75743484323856e-19
2.72326860766087e-12 9.66927170135515e-19
2.87358305921941e-12 1.07661472057838e-18
3.0213317969346696e-12 1.19017177537261e-18
3.19005329174244e-12 1.32680983116235e-18
3.36485742026322e-12 1.47620318259604e-18
3.53652543950395e-12 1.63067111069917e-18
3.73260262189754e-12 1.81650382990434e-18
3.92543796840928e-12 2.00904212008952e-18
4.1241427776742e-12 2.21758455690855e-18
4.35115060648137e-12 2.46843124998433e-18
4.5742082324581394e-12 2.72800188862057e-18
4.8289487578376e-12 3.04031091137418e-18
5.07961333219532e-12 3.36414040463154e-18
5.33799205584661e-12 3.71508410861503e-18
5.63313348033975e-12 4.13726070845013e-18
5.92329759847733e-12 4.57446079994033e-18
6.254634185292869e-12 5.10054557736177e-18
6.59795708790972e-12 5.67586134464557e-18
6.93519139031044e-12 6.27089755379044e-18
7.32035706758357e-12 6.98678428755234e-18
7.69923315540773e-12 7.72872308988053e-18
8.08969017584175e-12 8.53250560755747e-18
8.5357395865875e-12 9.49937687565793e-18
8.974118841930031e-12 1.05001725823423e-17
9.47474055122424e-12 1.17043542296543e-17
9.99337184938464e-12 1.30207769557967e-17
1.0502632289792302e-11 1.43816635804603e-17
1.10843217520289e-11 1.60188395727795e-17
1.16563204637494e-11 1.77147799510636e-17
1.2309451009654e-11 1.97555976572616e-17
1.29862901159175e-11 2.19878621728063e-17
1.36512653738116e-11 2.42973339443348e-17
1.44107162834546e-11 2.70759647567697e-17
1.51579202695191e-11 2.99565669262976e-17
1.59280598923756e-11 3.30779483236069e-17
1.68078046616431e-11 3.6832804551903e-17
1.7672601957208e-11 4.0720565077123e-17
1.86601379484075e-11 4.53986046016339e-17
1.96833228274189e-11 5.05137528634143e-17
2.06882317504014e-11 5.5803257227818e-17
2.18360047462759e-11 6.21668932534407e-17
2.29648905134767e-11 6.87609016295475e-17
2.41281925333339e-11 7.59036016308658e-17
2.54571657672998e-11 8.44953686968182e-17
2.6763117639848104e-11 9.33869540382763e-17
2.82545377135834e-11 1.04085256372426e-16
2.97994960865809e-11 1.15779226716147e-16
3.13163419123547e-11 1.2786593432276e-16
3.30489740668574e-11 1.42406157741421e-16
3.47525222673675e-11 1.57465517517386e-16
3.66977576778674e-11 1.75586798971244e-16
3.8713455566695e-11 1.95405453769094e-16
4.069356511387009e-11 2.1590578715467e-16
4.29550660546219e-11 2.40570065650247e-16
4.51798135798895e-11 2.66134804012007e-16
4.74726733768144e-11 2.93832738566568e-16
5.00919333777563e-11 3.27151106020132e-16
5.26663584983184e-11 3.61642436339328e-16
5.56062538711502e-11 4.03143888615864e-16
5.86520500524147e-11 4.48517298156222e-16
6.16430539498634e-11 4.9542862699272e-16
6.5059384016506e-11 5.51864805561619e-16
6.8419065678764e-11 6.10333323711286e-16
7.18809060429985e-11 6.7365864839095e-16
7.58358914841481e-11 7.49829283558816e-16
7.972186353284529e-11 8.28643424028328e-16
8.41598471099387e-11 9.23469762975974e-16
8.85266082847236e-11 1.02178719345196e-15
9.30276230201093e-11 1.12833134469763e-15
9.8169114478652e-11 1.2565001689387e-15
1.03223650653087e-10 1.38922065947495e-15
1.08995459286245e-10 1.54892224081132e-15
1.14975897491857e-10 1.72356005719562e-15
1.2084998549236e-10 1.90417127541941e-15
1.27559041509808e-10 2.12146220410421e-15
1.34158218815408e-10 2.34664487540429e-15
1.40958909499397e-10 2.59058512070897e-15
1.48727962801825e-10 2.88401863851807e-15
1.56363044890156e-10 3.18772642208293e-15
1.6508228023035004e-10 3.55315147470967e-15
1.74114929109925e-10 3.9526178265343e-15
1.8298393108878e-10 4.36554743090229e-15
1.93114439006546e-10 4.86230612408981e-15
2.03075687397419e-10 5.37685925143298e-15
2.14449958960544e-10 5.99604300729828e-15
2.26236781732397e-10 6.67327823624148e-15
2.378164285368e-10 7.37388753751502e-15
2.5104139615017e-10 8.21681459053733e-15
2.64052462574912e-10 9.09061465078918e-15
2.77462512065323e-10 1.00374046364832e-14
2.92781246961543e-10 1.11763325723949e-14
3.0783896487939e-10 1.23554903073037e-14
3.25033986385855e-10 1.37743258593282e-14
3.42849223213225e-10 1.53256584984091e-14
3.60345378965454e-10 1.69297567624697e-14
3.80329134132027e-10 1.88595789941697e-14
3.99983083445992e-10 2.08591233514696e-14
4.2023562322534396e-10 2.3024941398122e-14
4.43372707146465e-10 2.56301244788548e-14
4.66107872590624e-10 2.83260280446976e-14
4.92072133569898e-10 3.15696921469792e-14
5.17621725378792e-10 3.49331538352561e-14
5.43958079854528e-10 3.85783517359299e-14
5.74041404636774e-10 4.29634591907294e-14
6.03618298154605e-10 4.75048113092399e-14
6.37391731041252e-10 5.29694732708259e-14
6.72387552092224e-10 5.89457005873928e-14
7.06763798509163e-10 6.5127048484883e-14
7.46025681399021e-10 7.25638572503726e-14
7.84647601486603e-10 8.02716347090841e-14
8.24450785889059e-10 8.86221489789461e-14
8.69920712733834e-10 9.86670508214497e-14
9.14610111339326e-10 1.09064848640231e-13
9.65644287325819e-10 1.21575805441652e-13
1.01851531591842e-9 1.35253319416208e-13
1.07043264251637e-9 1.49393428048003e-13
1.12973341623268e-9 1.66404380268022e-13
1.1880480263655e-9 1.8402668317921e-13
1.25463347219976e-9 2.05232693050983e-13
1.3236371680922001e-9 2.28428722955513e-13
1.3914334174517197e-9 2.52428079475442e-13
1.46886118758984e-9 2.81302968470891e-13
1.54504265272047e-9 3.11238813158758e-13
1.62356395953262e-9 3.43677902013401e-13
1.71325962948166e-9 3.82700621256794e-13
1.80143398858366e-9 4.23106316953599e-13
1.90212202326376e-9 4.71725715887345e-13
2.00644660394064e-9 5.24889660127381e-13
2.10891089801894e-9 5.79868164993266e-13
2.2259412919602e-9 6.46011450660164e-13
2.34104936889606e-9 7.14552180750995e-13
2.4596689008724e-9 7.88798551654137e-13
2.59518055346195e-9 8.78108054472769e-13
2.72834884444434e-9 9.7053812560007e-13
2.88042829396808e-9 1.0817500920607e-12
3.03796978214212e-9 1.20331603432751e-12
3.1926493537283097e-9 1.32897022273411e-12
3.36933230880238e-9 1.48013216763129e-12
3.5430547361069e-9 1.63669790968162e-12
3.74142227346408e-9 1.82509829342238e-12
3.94697889571839e-9 2.03115194393588e-12
3.94994378531593e-9 2.03420460942171e-12
3.95291090207773e-9 2.03726186282947e-12
3.95885182378737e-9 2.04339016100235e-12
3.970760466874e-9 2.05570211649957e-12
3.99468532816153e-9 2.08054902263592e-12
4.04296837977507e-9 2.13114742524053e-12
4.04600537470438e-9 2.13435037626034e-12
4.049044650962e-9 2.13755814106971e-12
4.05513005431818e-9 2.14398814100707e-12
4.06732831245873e-9 2.15690622541524e-12
4.09183502005246e-9 2.18297636762973e-12
4.09490872259973e-9 2.18625721357221e-12
4.09798473404933e-9 2.18954299037435e-12
4.10414369059435e-9 2.19612936621153e-12
4.11648938691314e-9 2.20936161501989e-12
4.11958160931516e-9 2.2126821159642e-12
4.12267615453124e-9 2.21600760736659e-12
4.12887222038624e-9 2.22267359155796e-12
4.13197374451881e-9 2.22601409938135e-12
4.1350775984527e-9 2.22935962773162e-12
4.13818378393801e-9 2.23271018415423e-12
4.14129230272615e-9 2.23606577620601e-12