# Optomechanical membranes proposed vector DM search
# https://arxiv.org/abs/2007.04899
# mass [eV] 	g_B-L
7.560853470894232e-13 6.315953256051832e-22
9.073024165073079e-13 6.581341438898477e-22
1.0585194859251926e-12 6.804105967845794e-22
1.209736555343077e-12 6.9923472579088e-22
1.3609536247609618e-12 7.151419610239184e-22
1.5121706941788463e-12 7.285043301012007e-22
1.663387763596731e-12 7.395902614498126e-22
1.8146048330146159e-12 7.485991946444587e-22
1.9658219024325e-12 7.556827930434442e-22
2.117038971850385e-12 7.609585585638849e-22
2.2682560412682693e-12 7.645189077419717e-22
2.4194731106861542e-12 7.664374174064257e-22
2.570690180104039e-12 7.667732402769388e-22
2.7219072495219236e-12 7.655743001676819e-22
2.8731243189398077e-12 7.628796513722565e-22
3.0243413883576926e-12 7.587212521474613e-22
3.1755584577755775e-12 7.531253189976003e-22
3.3267755271934624e-12 7.461133755475931e-22
3.4779925966113465e-12 7.377030752872409e-22
3.6292096660292314e-12 7.279088544547651e-22
3.780426735447116e-12 7.167424556651718e-22
3.931643804865001e-12 7.042133520339555e-22
4.082860874282885e-12 6.90329093898807e-22
4.234077943700769e-12 6.750955947724968e-22
4.3852950131186526e-12 6.585173691952388e-22
4.536512082536541e-12 6.405977322449477e-22
4.6877291519544216e-12 6.213389683042876e-22
4.83894622137231e-12 6.007424750646362e-22
4.9901632907901946e-12 5.788088875229358e-22
5.141380360208079e-12 5.555381857945755e-22
5.292597429625963e-12 5.309297898503078e-22
5.443814499043847e-12 5.049826437345219e-22
5.595031568461732e-12 4.776952913972979e-22
5.7462486378796154e-12 4.490659459452523e-22
5.897465707297501e-12 4.190925538654651e-22
6.048682776715384e-12 3.87772855587741e-22
6.199899846133268e-12 3.551044436126307e-22
6.351116915551153e-12 3.210848193402557e-22
6.502333984969037e-12 2.85711449688632e-22
6.6535510543869256e-12 2.489818246050691e-22
6.80476812380481e-12 2.108935167099446e-22
6.9559851932226946e-12 1.71444244801883e-22
7.107202262640579e-12 1.306319448932335e-22
7.2584193320584635e-12 8.845486296533674e-23
7.409636401476348e-12 4.491178830090051e-23
7.485244936185287e-12 2.262825759917534e-23
7.560853470894231e-12 2.929751233391818e-25
7.560853470894231e-12 2.929751233391819e-25
7.636462005603172e-12 2.297023839898057e-23
7.712070540312117e-12 4.627960090923666e-23
7.86328760973e-12 9.392540738438015e-23
8.014504679147884e-12 1.429382466010045e-22
8.165721748565769e-12 1.933160922086593e-22
8.316938817983658e-12 2.450560784923082e-22
8.468155887401541e-12 2.981541771051111e-22
8.619372956819427e-12 3.526049856357801e-22
8.77059002623731e-12 4.08401506775759e-22
8.921807095655191e-12 4.655349008861456e-22
9.073024165073079e-12 5.239942045859942e-22
9.224241234490964e-12 5.837660091444325e-22
9.375458303908846e-12 6.448340920739649e-22
9.526675373326732e-12 7.071789944708044e-22
9.677892442744617e-12 7.707775355458321e-22
9.8291095121625e-12 8.356022544781837e-22
9.980326581580384e-12 9.016207681997162e-22
1.0131543650998269e-11 9.68795031966505e-22
1.0282760720416152e-11 1.037080487573492e-21
1.0433977789834038e-11 1.106425081801882e-21
1.0585194859251926e-11 1.176768135142895e-21
1.0736411928669812e-11 1.248039038012771e-21
1.0887628998087694e-11 1.320155748576904e-21
1.1038846067505579e-11 1.393023062976468e-21
1.1190063136923463e-11 1.466530625280539e-21
1.1341280206341348e-11 1.540550641011321e-21
1.1492497275759231e-11 1.614935254836111e-21
1.1643714345177117e-11 1.689513550333279e-21
1.1794931414595001e-11 1.764088128133324e-21
1.1946148484012884e-11 1.838431218947326e-21
1.2097365553430769e-11 1.912280291060521e-21
1.2248582622848653e-11 1.98533311921281e-21
1.2399799692266536e-11 2.057242295324247e-21
1.2551016761684422e-11 2.127609183757734e-21
1.270223383110231e-11 2.195977357929588e-21
1.2853450900520196e-11 2.261825604983722e-21
1.3004667969938079e-11 2.324560655483132e-21
1.3155885039355963e-11 2.383509890557939e-21
1.3307102108773848e-11 2.437914404357699e-21
1.3458319178191732e-11 2.486922958307341e-21
1.3609536247609615e-11 2.529587555701141e-21
1.3760753317027501e-11 2.564861584835254e-21
1.3911970386445386e-11 2.591601710877791e-21
1.4063187455863269e-11 2.608574911821476e-21
1.4214404525281153e-11 2.614472204894521e-21
1.4365621594699043e-11 2.607930629049845e-21
1.4516838664116927e-11 2.587564850863527e-21
1.4668055733534805e-11 2.552009252189278e-21
1.4819272802952696e-11 2.499970460166124e-21
1.497048987237058e-11 2.430288966130862e-21
1.5121706941788462e-11 2.342006816439058e-21
1.5272924011206346e-11 2.234436544974691e-21
1.5424141080624234e-11 2.107224898385595e-21
1.5575358150042115e-11 1.960403928290563e-21
1.572657521946e-11 1.794422133914196e-21
1.5877792288877887e-11 1.610149817380708e-21
1.602900935829577e-11 1.408855630645621e-21
1.6180226427713653e-11 1.192155025236418e-21
1.6331443497131538e-11 9.61935215618401e-22
1.6482660566549425e-11 7.202644736631495e-22
1.663387763596731e-11 4.692954302600451e-22
1.6737516505546384e-11 2.930314178966939e-22
1.6785094705385194e-11 2.111730271272191e-22
1.6813125040255325e-11 1.627076417160823e-22
1.688873357496427e-11 3.122981761474815e-23
1.6906582328834732e-11 1.552317919071615e-24
1.693631177480308e-11 5.208462467795568e-23
1.696434210967321e-11 1.012725442678029e-22
1.703995064438215e-11 2.344332875675537e-22
1.7087528844220963e-11 3.185003460713353e-22
1.7238745913638848e-11 5.864430486624046e-22
1.7389962983056732e-11 8.544244929502603e-22
1.754118005247462e-11 1.121205084851653e-21
1.7692397121892505e-11 1.385772263809105e-21
1.784361419131039e-11 1.647323264181044e-21
1.7994831260728274e-11 1.905241584806567e-21
1.8146048330146158e-11 2.159069908152007e-21
1.8297265399564043e-11 2.408481799666205e-21
1.8448482468981927e-11 2.653253822313432e-21
1.8599699538399818e-11 2.893239046300132e-21
1.87509166078177e-11 3.128342383098605e-21
1.890213367723558e-11 3.358497733768524e-21
1.9053350746653465e-11 3.583646596140605e-21
1.920456781607135e-11 3.803717491867794e-21
1.9355784885489234e-11 4.018605313260757e-21
1.950700195490712e-11 4.228149405610344e-21
1.9658219024325003e-11 4.432108838962281e-21
1.9809436093742887e-11 4.630132814076859e-21
1.9960653163160772e-11 4.821723393135183e-21
2.0111870232578656e-11 5.00618660238802e-21
2.0263087301996544e-11 5.182566199442984e-21
2.041430437141443e-11 5.349551683614809e-21
2.0565521440832313e-11 5.505347901958374e-21
2.07167385102502e-11 5.647486997637062e-21
2.0867955579668082e-11 5.772553125495317e-21
2.1019172649085967e-11 5.875774386228836e-21
2.117038971850385e-11 5.950412395084675e-21
2.1321606787921736e-11 5.986846147627922e-21
2.1472823857339617e-11 5.971207426818753e-21
2.1624040926757498e-11 5.883405790886753e-21
2.177525799617539e-11 5.694475633985599e-21
2.1926475065593273e-11 5.363655724561227e-21
2.2077692135011158e-11 4.837088315408257e-21
2.2228909204429042e-11 4.053316656838424e-21
2.2380126273846927e-11 2.964735716965584e-21
2.2455734808555864e-11 2.305208392116724e-21
2.2531343343264808e-11 1.57953672387344e-21
2.253134334326481e-11 1.57953672387344e-21
2.2606951877973752e-11 8.039539283289088e-22
2.2682560412682696e-11 5.762180299066989e-24
2.2682560412682696e-11 5.76218029906699e-24
2.2758168947391637e-11 8.080727106138483e-22
2.2833777482100577e-11 1.596776216916151e-21
2.283377748210058e-11 1.596776216916197e-21
2.290938601680952e-11 2.346497688020947e-21
2.2984994551518468e-11 3.043218202978713e-21
2.3136211620936353e-11 4.250912938846668e-21
2.3287428690354237e-11 5.210925777830109e-21
2.343864575977212e-11 5.956319414597038e-21
2.3589862829190006e-11 6.530193915425578e-21
2.3741079898607884e-11 6.970619926160232e-21
2.3892296968025772e-11 7.306653706442931e-21
2.4043514037443656e-11 7.558933925984397e-21
2.419473110686154e-11 7.741475679508177e-21
2.4345948176279425e-11 7.863406640297769e-21
2.4497165245697313e-11 7.93032985454943e-21
2.4648382315115197e-11 7.945320971317014e-21
2.4799599384533082e-11 7.909647699662591e-21
2.4950816453950966e-11 7.823299840664662e-21
2.510203352336885e-11 7.685399342832607e-21
2.5253250592786735e-11 7.494540100081728e-21
2.540446766220462e-11 7.249090788768435e-21
2.5555684731622504e-11 6.947480686220111e-21
2.5706901801040392e-11 6.588477041674089e-21
2.5858118870458277e-11 6.171452422500246e-21
2.6009335939876164e-11 5.69663147330353e-21
2.6160553009294046e-11 5.165299387918422e-21
2.6311770078711927e-11 4.579950344356564e-21
2.646298714812981e-11 3.944354546510936e-21
2.6614204217547696e-11 3.263528192301264e-21
2.676542128696558e-11 2.543601334961021e-21
2.6916638356383465e-11 1.791592457306997e-21
2.6988434426823237e-11 1.425499876330744e-21
2.706404296153218e-11 1.03492657667817e-21
2.706785542580135e-11 1.015112946132825e-21
2.7139651496241122e-11 6.401559211915667e-22
2.7215260030950066e-11 2.421833250589829e-22
2.7219072495219237e-11 2.220502028924333e-22
2.7261044875579028e-11 3.660920820900614e-24
2.7290868565659006e-11 1.581215582243831e-22
2.7366477100367953e-11 5.596241916263386e-22
2.737028956463712e-11 5.798882229263946e-22
2.744208563507689e-11 9.615349429305107e-22
2.7517694169785835e-11 1.362953960589081e-21
2.7521506634055006e-11 1.383166643839499e-21
2.767272370347289e-11 2.1810208927822e-21
2.7823940772890775e-11 2.967385967372495e-21
2.797515784230866e-11 3.737023531708843e-21
2.8126374911726547e-11 4.485504801543626e-21
2.827759198114443e-11 5.209125146071195e-21
2.8428809050562316e-11 5.904759392280011e-21
2.8580026119980194e-11 6.569666498056765e-21
2.8731243189398082e-11 7.20124665372021e-21
2.8882460258815966e-11 7.796745243626801e-21
2.9033677328233848e-11 8.352886363856905e-21
2.9184894397651735e-11 8.865402728895795e-21
2.933611146706962e-11 9.328406797189225e-21
2.9487328536487504e-11 9.733516908039657e-21
2.963854560590539e-11 1.006860935188151e-20
2.9789762675323273e-11 1.031601373556641e-20
2.994097974474116e-11 1.044992210766249e-20
3.009219681415904e-11 1.043281013154446e-20
3.024341388357693e-11 1.021097447824213e-20
3.039463095299481e-11 9.710374726151631e-21
3.05458480224127e-11 8.836744161716e-21
3.0697065091830587e-11 7.48895388902663e-21
3.084828216124847e-11 5.598074499533601e-21
3.086245550551167e-11 5.39287882560493e-21
3.0938064040220616e-11 4.223852217059937e-21
3.0999499230666356e-11 3.191685968111917e-21
3.1013672574929556e-11 2.944688514707131e-21
3.10892811096385e-11 1.583452719626533e-21
3.115071630008423e-11 4.409355165211418e-22
3.116488964434744e-11 1.752601322712563e-22
3.117419748031482e-11 1.211693464468854e-23
3.124049817905638e-11 1.243725985057045e-21
3.130193336950212e-11 2.379046283296304e-21
3.1316106713765325e-11 2.636794459367795e-21
3.1391715248474266e-11 3.974955270319928e-21
3.1453150438920006e-11 5.006693077989909e-21
3.1467323783183207e-11 5.23667607868529e-21
3.160436750833789e-11 7.291216484597296e-21
3.1755584577755775e-11 9.198089247062217e-21
3.1906801647173656e-11 1.076269630787568e-20
3.2058018716591544e-11 1.204495398517021e-20
3.220923578600943e-11 1.310413072584773e-20
3.236045285542731e-11 1.39895723547605e-20
3.25116699248452e-11 1.473935851375102e-20
3.266288699426308e-11 1.538183731933379e-20
3.281410406368097e-11 1.593774710996269e-20
3.296532113309885e-11 1.642211183545242e-20
3.311653820251674e-11 1.684571977843919e-20
3.326775527193462e-11 1.721621256808978e-20
3.34189723413525e-11 1.753886609805907e-20
3.357018941077039e-11 1.781714360431998e-20
3.3721406480188277e-11 1.805308507413208e-20
3.387262354960616e-11 1.824758048334436e-20
3.4023840619024045e-11 1.840056096008794e-20
3.4175057688441927e-11 1.851113220637733e-20
3.4326274757859814e-11 1.857766775131887e-20
3.4477491827277696e-11 1.85978751168234e-20
3.4628708896695583e-11 1.856884513027714e-20
3.4779925966113465e-11 1.848709295693635e-20
3.493114303553135e-11 1.8348598610931e-20
3.508236010494924e-11 1.81488544791451e-20
3.523357717436712e-11 1.788292753155673e-20
3.538479424378501e-11 1.754554416210074e-20
3.553601131320289e-11 1.713120573109172e-20
3.568722838262078e-11 1.663434252304349e-20
3.583844545203866e-11 1.604951258077204e-20
3.598966252145655e-11 1.537164927382174e-20
3.6140879590874435e-11 1.459635708832273e-20
3.6292096660292316e-11 1.372024874592039e-20
3.6443313729710204e-11 1.274130850986672e-20
3.6594530799128085e-11 1.16592571565239e-20
3.674574786854597e-11 1.047588507930564e-20
3.6896964937963854e-11 9.195313572339554e-21
3.7048182007381735e-11 7.824143104377569e-21
3.7199399076799617e-11 6.371453583554848e-21
3.7350616146217504e-11 4.848636197061282e-21
3.7426224680926445e-11 4.065041891115758e-21
3.7501833215635385e-11 3.269058364164307e-21
3.757744175034433e-11 2.462587472884177e-21
3.765305028505327e-11 1.647590861575769e-21
3.7728658819762214e-11 8.260773628603647e-22
3.780426735447116e-11 7.828279348788246e-24
3.78798758891801e-11 8.285613999598911e-22
3.795548442388904e-11 1.657539264918259e-21
3.803109295859798e-11 2.485016368142654e-21
3.810670149330693e-11 3.309036602355244e-21
3.818231002801587e-11 4.127698082295859e-21
3.825791856272481e-11 4.939151983811156e-21
3.84091356321427e-11 6.533304602934626e-21
3.856035270156058e-11 8.07767375555465e-21
3.871156977097847e-11 9.558846292584892e-21
3.886278684039635e-11 1.096308286603317e-20
3.901400390981424e-11 1.227507535969172e-20
3.9165220979232125e-11 1.347597256679744e-20
3.9316438048650006e-11 1.454028075272528e-20
3.9467655118067894e-11 1.543097000179237e-20
3.9618872187485775e-11 1.609172636863118e-20
3.977008925690366e-11 1.643492989467796e-20
3.9921306326321544e-11 1.632439151726726e-20
4.007252339573943e-11 1.555592095766369e-20
4.022374046515731e-11 1.385339427915651e-20
4.030927760312677e-11 1.236394114437303e-20
4.03749575345752e-11 1.092998239769768e-20
4.038488613783571e-11 1.069078100312943e-20
4.0460494672544654e-11 8.67985539863156e-21
4.052617460399309e-11 6.67980077041435e-21
4.05361032072536e-11 6.359296366818839e-21
4.061171174196254e-11 3.791542769467844e-21
4.067739167341097e-11 1.430968487282515e-21
4.068732027667148e-11 1.068241853527961e-21
4.071644202336037e-11 2.064643980784864e-23
4.076292881138043e-11 1.705025845128935e-21
4.082860874282886e-11 4.074355534143256e-21
4.083853734608937e-11 4.425424726069599e-21
4.091414588079831e-11 7.01149569358338e-21
4.097982581224674e-11 9.106258877384477e-21
4.098975441550725e-11 9.40917425158949e-21
4.10653629502162e-11 1.159192085903119e-20
4.1131042881664626e-11 1.330952589347827e-20
4.128225995108251e-11 1.667494786121971e-20
4.143347702050041e-11 1.934681331048552e-20
4.158469408991829e-11 2.149003521834463e-20
4.1735911159336164e-11 2.324101039766541e-20
4.188712822875405e-11 2.470060652606055e-20
4.2038345298171927e-11 2.594037627120884e-20
4.21895623675898e-11 2.701047445268004e-20
4.234077943700769e-11 2.794608272329662e-20
4.2491996506425564e-11 2.877199652849342e-20
4.264321357584345e-11 2.950574752873506e-20
4.2794430645261365e-11 3.015969170801158e-20
4.294564771467925e-11 3.074239617860356e-20
4.309686478409713e-11 3.12595533887484e-20
4.3248081853515015e-11 3.171457164735043e-20
4.339929892293289e-11 3.210893513081629e-20
4.3550515992350765e-11 3.24423878099666e-20
4.370173306176865e-11 3.271296709735125e-20
4.385295013118653e-11 3.291688854505586e-20
4.400416720060441e-11 3.304825693240299e-20
4.415538427002233e-11 3.309854458097336e-20
4.4306601339440217e-11 3.3055723861719e-20
4.445781840885809e-11 3.290284813783066e-20
4.460903547827597e-11 3.261570622888781e-20
4.4760252547693854e-11 3.215885470350484e-20
4.491146961711173e-11 3.147870813406867e-20
4.5062686686529616e-11 3.049114360519542e-20
4.521390375594749e-11 2.905875936784147e-20
4.536512082536537e-11 2.694924917488275e-20
4.551633789478329e-11 2.376497804133697e-20
4.553096742793236e-11 2.337828620422294e-20
4.560657596264128e-11 2.109802860828623e-20
4.566755496420118e-11 1.886251216676887e-20
4.5682184497350245e-11 1.826656583846152e-20
4.57577930320592e-11 1.47822171939145e-20
4.5818772033619055e-11 1.145446056657127e-20
4.583340156676812e-11 1.058780256064261e-20
4.5909010101477086e-11 5.734994422898214e-21
4.5969989103036936e-11 1.487270923420708e-21
4.5984618636186e-11 4.475607345362447e-22
4.599087618983067e-11 3.76483892654908e-23
4.606022717089496e-11 4.88920420862966e-21
4.612120617245482e-11 8.919435586262881e-21
4.613583570560388e-11 9.824740842455438e-21
4.6211444240312836e-11 1.402099823989924e-20
4.62724232418727e-11 1.676210121364307e-20
4.628705277502176e-11 1.733356609488882e-20
4.6362661309730724e-11 1.978966085266486e-20
4.6423640311290574e-11 2.122704973836197e-20
4.6438269844439684e-11 2.150904407413245e-20
4.6574857380708455e-11 2.320157888417079e-20
4.6726074450126336e-11 2.364864321527922e-20
4.687729151954422e-11 2.316637277223561e-20
4.702850858896214e-11 2.207986041649043e-20
4.717972565838002e-11 2.05646422410062e-20
4.73309427277979e-11 1.872039491214894e-20
4.748215979721578e-11 1.660919899637101e-20
4.763337686663366e-11 1.427505479597711e-20
4.778459393605154e-11 1.175393926671614e-20
4.7928953274009516e-11 9.203148766457381e-21
4.793581100546942e-11 9.07896797996905e-21
4.8004561808718476e-11 7.820758617918876e-21
4.80801703434274e-11 6.411845731826975e-21
4.80870280748873e-11 6.282888739287903e-21
4.815577887813636e-11 4.980599377049588e-21
4.823138741284528e-11 3.531257501252353e-21
4.8238245144305174e-11 3.399053644904925e-21
4.830699594755423e-11 2.068100237589759e-21
4.8382604482263153e-11 5.954746814549639e-22
4.83894622137231e-11 4.616038680851208e-22
4.8413084115161126e-11 1.005536197929023e-23
4.845821301697212e-11 8.825563036592617e-22
4.853382155168104e-11 2.361295051517351e-21
4.854067928314098e-11 2.49531465956476e-21
4.8609430086389995e-11 3.836637155568901e-21
4.868503862109896e-11 5.304257627015146e-21
4.8691896352558864e-11 5.436841250130243e-21
4.8760647155807876e-11 6.759851738705036e-21
4.8836255690516836e-11 8.199096849010178e-21
4.884311342197674e-11 8.328678165493763e-21
4.8994330491394626e-11 1.11358822991564e-20
4.91455475608125e-11 1.382142123433029e-20
4.929676463023039e-11 1.634284904034065e-20
4.9447981699648263e-11 1.864615810911222e-20
4.959919876906614e-11 2.065481070067848e-20
4.9750415838484065e-11 2.225044122380718e-20
4.9901632907901946e-11 2.323976909918417e-20
5.005284997731983e-11 2.330267143729659e-20
5.02040670467377e-11 2.193240685030618e-20
5.0212549516639134e-11 2.179965826131917e-20
5.0288158051348094e-11 2.03011443678735e-20
5.035528411615559e-11 1.844894492139666e-20
5.0363766586057015e-11 1.817736281688509e-20
5.043937512076597e-11 1.537154430632622e-20
5.0506501185573464e-11 1.230889637252197e-20
5.051498365547489e-11 1.188589865434307e-20
5.0590592190183857e-11 7.807314227004734e-21
5.065771825499134e-11 3.829062902293972e-21
5.066620072489278e-11 3.310857861054924e-21
5.0719746986504176e-11 3.122273870689782e-23
5.074180925960173e-11 1.370934461681102e-21
5.080893532440923e-11 5.488976918260845e-21
5.08174177943107e-11 5.998990327200084e-21
5.089302632901962e-11 1.038262924209361e-20
5.096015239382715e-11 1.397071477022819e-20
5.096863486372857e-11 1.440124629523748e-20
5.1044243398437494e-11 1.800336654548064e-20
5.111136946324503e-11 2.085099822670397e-20
5.1119851933146454e-11 2.118828091118876e-20
5.1195460467855375e-11 2.39851049110759e-20
5.12625865326629e-11 2.617702089637959e-20
5.141380360208079e-11 3.027797847246568e-20
5.1565020671498666e-11 3.346925508123925e-20
5.1716237740916553e-11 3.597417780844517e-20
5.186745481033443e-11 3.792288245940337e-20
5.20186718797523e-11 3.935793878281045e-20
5.216988894917019e-11 4.021655118763617e-20
5.2321106018588065e-11 4.025404088411357e-20
5.239671455329703e-11 3.978853363358988e-20
