# Compact mechanical resonators - Pillar
# https://arxiv.org/pdf/1910.07574.pdf
# mass [eV] d_me
2.274718219423889e-9	0.01020709855785974
6.824154658271667e-9	0.06980145958102263
1.1373591097119446e-8	0.170647455062688
1.5923027535967226e-8	0.3074849601995271
2.0472463974815003e-8	0.4773387591020543
2.5021900413662782e-8	0.6781714571897972
2.957133685251056e-8	0.908454488019942
3.412077329135834e-8	1.166976234200312
3.867020973020612e-8	1.452740087087522
4.32196461690539e-8	1.7649040915479846
4.776908260790167e-8	2.102742410046843
5.231851904674945e-8	2.4656193022558575
5.686795548559723e-8	2.8529707785518066
6.141739192444501e-8	3.264291209793508
6.596682836329278e-8	3.6991232746591316
7.051626480214057e-8	4.157050232991735
7.506570124098834e-8	4.637689867468342
7.961513767983612e-8	5.140689651487369
8.41645741186839e-8	5.665722837506411
8.871401055753168e-8	6.212485249091092
9.326344699637946e-8	6.780692619707931
9.781288343522724e-8	7.3700783624115065
1.0236231987407501e-7	7.980391683474364
1.069117563129228e-7	8.611395973710122
1.1146119275177057e-7	9.262867426326656