# MICROSCOPE (B coupling)
# https://arxiv.org/pdf/1712.00483.pdf
# lambda [m] alpha
51287.03989700748	0.00009458021310563782
54784.436859921516	0.00007003837516676964
56364.79397994323	0.000054576351461946705
57558.01240267978	0.00004284549427054046
58775.91912101756	0.000033692688921507585
59917.532665453575	0.000025773635774065557
62333.75498060864	0.000018773515118018425
63417.909477033965	0.000013556948886485228
65838.75963487406	0.000009968572393076955
67794.25398868152	0.0000069126709483148514
70938.74575880276	0.0000048471868011255276
73892.0528215879	0.000003618217911031632
74836.15737017241	0.0000027797869246540298
76998.68712484314	0.0000021479821188252377
80258.23150794303	0.0000016765980427784248
81280.28762564287	0.0000012973994218521922
83618.11135207079	0.0000010254011133163336
86896.7845831328	7.862785923831936e-7
90404.77666137616	5.99887135656783e-7
93707.35682148057	4.494865369295189e-7
97622.80228784717	3.271702473963323e-7
102095.69350995963	2.3551904285060515e-7
106475.82681983401	1.7181310399229333e-7
110427.9629377377	1.317148329974338e-7
115376.9698592938	9.91729417275326e-8
121234.50513119764	7.345006099894729e-8
127794.77668727	5.516622465656252e-8
133077.56395899903	4.323585638292116e-8
138574.68821153353	3.4056846904167605e-8
144287.65933553607	2.7189652737130944e-8
150233.2349615127	2.178023682751367e-8
156416.2001103304	1.7594252376978852e-8
162641.76177152983	1.3982634384701617e-8
172533.14339307076	1.0898373905731895e-8
179850.32726997355	8.568167609111484e-9
192728.08493001622	6.597476989713769e-9
203790.2732094658	5.081674403151109e-9
219660.44114349532	3.953169311079546e-9
233594.80320933126	3.069374449120249e-9
248410.34330069378	2.3877478000065884e-9
268255.74191072496	1.8557094219031646e-9
285645.994726017	1.4631451267242867e-9
308883.30453849566	1.1459653272866391e-9
337066.2168812867	8.810686544362844e-10
365801.7277723617	6.860926537638028e-10
396952.2471200802	5.424060144367156e-10
437388.9119957448	4.230610500558591e-10
482977.35729042516	3.3179190615675057e-10
537120.8319515444	2.6030815464082753e-10
615140.0732817007	1.9899557918946352e-10
710269.1197037629	1.5284665958777157e-10
807597.8828011202	1.2088956978354085e-10
927307.3452142904	9.517889820710282e-11
1064672.4710347753	7.602359932100343e-11
1234385.7865154177	6.07781079471534e-11
1445160.7041176332	4.887066967897789e-11
1708534.4384637664	3.933463766575429e-11
2059792.0352926305	3.1629216382514796e-11
2532201.5852580145	2.5579240563884905e-11
3143105.982256756	2.1177676580923226e-11
3900710.751636265	1.8072007351654425e-11
4840027.565992782	1.5924584233455586e-11
6004677.942392151	1.4383964631048383e-11
7448628.443983829	1.3281392034319282e-11
9238581.769405028	1.2547614721276707e-11
11457821.422122952	1.2007489177478768e-11
14208948.16412227	1.1660384990482648e-11
17620178.001921974	1.1375332330798407e-11
21849087.840319328	1.1209711523481327e-11
27092233.546207868	1.1097248139038536e-11
33593581.749797225	1.0985913063099877e-11
41654401.553195655	1.0905644320303079e-11
51647232.7660762	1.0905644320303079e-11
64037329.86024866	1.0905644320303079e-11
79398951.0900374	1.0925656354971576e-11
98447690.1052899	1.0905644320303079e-11
122065149.81753102	1.0905644320303079e-11
151348404.25449184	1.0905644320303079e-11
187656669.44760656	1.0905644320303079e-11
232675235.40555122	1.0905644320303079e-11
288493690.7938869	1.0905644320303079e-11
357702913.60321313	1.0905644320303079e-11
443515329.73954046	1.0905644320303079e-11
549914021.4780893	1.0905644320303079e-11
681837606.821385	1.0905644320303079e-11
845449834.5747072	1.0816042803510895e-11
978859776.1216018	1.0988430958518483e-11
1e10	1.0988430958518483e-11
