# Union of inverse square law tests 
#  m [eV] 	 g_s_baryon [dimensionless]
8.615706952098159421e-09 2.738674030019057312e-19
8.795423321129527653e-09 2.676058342110375647e-19
8.978888421806216068e-09 2.612136543845570454e-19
9.166180449503587015e-09 2.546881390865955851e-19
9.357379230686591636e-09 2.475578142590756299e-19
9.552566256932765604e-09 2.401781909586883096e-19
9.751824719665159224e-09 2.322450213708836822e-19
9.955239545609507190e-09 2.240344742354469062e-19
1.016289743299142719e-08 2.164375351002412007e-19
1.037488688848826698e-08 2.101847726893787515e-19
1.059129826495183084e-08 2.039089753523017070e-19
1.081222379991817828e-08 1.983596532259870795e-19
1.103775765492036375e-08 1.926945769278248461e-19
1.126799595562157395e-08 1.869956892602602786e-19
1.150303683278503126e-08 1.812441089023660159e-19
1.174298046409888249e-08 1.753805602363485630e-19
1.198792911687312803e-08 1.706115182968666554e-19
1.223798719162756340e-08 1.657429981711034020e-19
1.249326126658856240e-08 1.608871007088614989e-19
1.275386014311427281e-08 1.566529410195604525e-19
1.301989489206733763e-08 1.523304603358831272e-19
1.329147890115466819e-08 1.479178163564955236e-19
1.356872792325506447e-08 1.447136559393653535e-19
1.385176012575448693e-08 1.415083817087796086e-19
1.414069614091086395e-08 1.382362481653509130e-19
1.443565911726900321e-08 1.348077716365714252e-19
1.473677477214844750e-08 1.312051591036575332e-19
1.504417144522570687e-08 1.275273991165604063e-19
1.535798015323465379e-08 1.241002732735023728e-19
1.567833464580742991e-08 1.214553977575853527e-19
1.600537146248064684e-08 1.187553523726250190e-19
1.633922999089018261e-08 1.161943205247079629e-19
1.668005252618038517e-08 1.138448693829397318e-19
1.702798433165197545e-08 1.114464106750181223e-19
1.738317370067555675e-08 1.089979221445110843e-19
1.774577201989603532e-08 1.066276528135288385e-19
1.811593383375599040e-08 1.042157442393281524e-19
1.849381691036441714e-08 1.017535252896932816e-19
1.887958230873979035e-08 9.933246252046005507e-20
1.927339444745576856e-08 9.745247922861193892e-20
1.967542117471842011e-08 9.553328107338376912e-20
2.008583383990575233e-08 9.357405006585124985e-20
2.050480736659890227e-08 9.158217486902185902e-20
2.093252032713730164e-08 8.990066606179767996e-20
2.136915501872837235e-08 8.818408240128435302e-20
2.181489754114546174e-08 8.643169225567087520e-20
2.226993787604580762e-08 8.464274873192540832e-20
2.273446996794371507e-08 8.319443906203796456e-20
2.320869180687203845e-08 8.175295263246639176e-20
2.369280551276865938e-08 8.028139801364788469e-20
2.418701742162243409e-08 7.877914800855468010e-20
2.469153817341683913e-08 7.728626922318742507e-20
2.520658280190733094e-08 7.580502098950578586e-20
2.573237082627184932e-08 7.429287516893195666e-20
2.626912634467310401e-08 7.274918726390334878e-20
2.681707812977197189e-08 7.120276366500027304e-20
2.737645972623399249e-08 7.009044352652698557e-20
2.794750955026893116e-08 6.895492132958103981e-20
2.853047099124751521e-08 6.779571309882203668e-20
2.912559251543690383e-08 6.661232476359332242e-20
2.973312777190095252e-08 6.541910329801535321e-20
3.035333570060847077e-08 6.420777582603588302e-20
3.098648064279753213e-08 6.297118108624152505e-20
3.163283245364089151e-08 6.170879202477005131e-20
3.229266661726249803e-08 6.049882288908407893e-20
3.296626436415215989e-08 5.955150880028785091e-20
3.365391279103039436e-08 5.858443453982864048e-20
3.435590498321260725e-08 5.759718792721772382e-20
3.507254013952628271e-08 5.658934818422964254e-20
3.580412369983383819e-08 5.564755515096835639e-20
3.655096747521523571e-08 5.470806902378447141e-20
3.731338978086600203e-08 5.374898600960435514e-20
3.809171557176773995e-08 5.276989733391955379e-20
3.888627658118870891e-08 5.179019445583536503e-20
3.969741146207261602e-08 5.108140786001187416e-20
4.052546593137780137e-08 5.035783657453629748e-20
4.137079291742599774e-08 4.961917220327178268e-20
4.223375271032593227e-08 4.886509991719827978e-20
4.311471311553331914e-08 4.809853531723123855e-20
4.401404961061531685e-08 4.734407540982506295e-20
4.493214550528359300e-08 4.657387810606918177e-20
4.586939210476699513e-08 4.578761513716950424e-20
4.682618887659049838e-08 4.498495138692252236e-20
4.780294362083459830e-08 4.416554474888348924e-20
4.880007264394458567e-08 4.350333792873503506e-20
4.981800093616694872e-08 4.291772721029779597e-20
5.085716235268539026e-08 4.231990114695984104e-20
5.191799979853626621e-08 4.170960493694532896e-20
5.300096541738114733e-08 4.108657846352843660e-20
5.410652078421604608e-08 4.047176276805007180e-20
5.523513710210189933e-08 3.989200024188599173e-20
5.638729540299699990e-08 3.930014435917190932e-20
5.756348675278042816e-08 3.869594286270573186e-20
5.876421246055019410e-08 3.807913823341349651e-20
5.998998429228910485e-08 3.744946758059063484e-20
6.124132468898556889e-08 3.692776209388097140e-20
6.251876698930620311e-08 3.646497067660675753e-20
6.382285565691113997e-08 3.599252582130436335e-20
6.515414651251307645e-08 3.551022616541103758e-20
6.651320697077472087e-08 3.501786614611123130e-20
6.790061628214989447e-08 3.451523591272252995e-20
6.931696577976711285e-08 3.405146951676224144e-20
7.076285913146445116e-08 3.359991619007832622e-20
7.223891259708145316e-08 3.313894384244268416e-20
7.374575529111732478e-08 3.266835600103480580e-20
7.528402945086798838e-08 3.218795209477718944e-20
7.685439071015683657e-08 3.169752736884908870e-20
7.845750837877546759e-08 3.127302080288951902e-20
8.009406572775167645e-08 3.087601475978744333e-20
8.176476028057039360e-08 3.047072750599112857e-20
8.347030411046653961e-08 3.005698630244099423e-20
8.521142414392189328e-08 2.963461480688645325e-20
8.698886247048987813e-08 2.924638335742429009e-20
8.880337665908584412e-08 2.886559996990079975e-20
9.065574008087206986e-08 2.847687376257466333e-20
9.254674223888067378e-08 2.808003905493431594e-20
9.447718910450960203e-08 2.767492671051276101e-20
9.644790346103928871e-08 2.726136406479919393e-20
9.845972525431473833e-08 2.687733910110625222e-20
1.005135119507417908e-07 2.655637748613975722e-20
1.026101389027507758e-07 2.622872088301257953e-20
1.047504997218842447e-07 2.589422963992720612e-20
1.069355066596670956e-07 2.556076938729644675e-20
1.091660909964204244e-07 2.535694511900252544e-20
1.114432034381857303e-07 2.514886924864948646e-20
1.137678145219294105e-07 2.493645309140988274e-20
1.161409150291998233e-07 2.471960611256560301e-20
1.185635164084105476e-07 2.449823588892089336e-20
1.210366512059356315e-07 2.427224806941011141e-20
1.235613735061932754e-07 2.404154633488418266e-20
1.261387593809131927e-07 2.380603235705785698e-20
1.287699073477713872e-07 2.356560575660100056e-20
1.314559388385956747e-07 2.332016406035536219e-20
1.341979986773334310e-07 2.306960265765925784e-20
1.369972555679935775e-07 2.281381475576087508e-20
1.398549025927625429e-07 2.255269133430189799e-20
1.427721577205133730e-07 2.228612109885141097e-20
1.457502643259215455e-07 2.200726769706564468e-20
1.487904917194078513e-07 2.171470959067668430e-20
1.518941356881357703e-07 2.141604896932252411e-20
1.550625190482942642e-07 2.111115853969603504e-20
1.582969922089016202e-07 2.079990835325912751e-20
1.615989337473661390e-07 2.048216575085711085e-20
1.649697509970577228e-07 2.017584239031118289e-20
1.684108806471301540e-07 1.986611382842641072e-20
1.719237893548607214e-07 1.954992459037925836e-20
1.755099743707571732e-07 1.922713991192259285e-20
1.791709641767095340e-07 1.889762221774081155e-20
1.829083191374473794e-07 1.856123106281356880e-20
1.867236321655919635e-07 1.821782307255589926e-20
1.906185294005751221e-07 1.786725188171021209e-20
1.945946709017235590e-07 1.780294243166001022e-20
1.986537513557999449e-07 1.745638007715435620e-20
2.027975007993013965e-07 1.710258872468703508e-20
2.070276853558239975e-07 1.674141758346719413e-20
2.113461079888102051e-07 1.639051405868116203e-20
2.157546092699976545e-07 1.609027861257951682e-20
2.202550681638957049e-07 1.578378050869155531e-20
2.248494028286252335e-07 1.548130557249856412e-20
2.295395714334651750e-07 1.518883819192653990e-20
2.343275729934528772e-07 1.489027018885319112e-20
2.392154482213888415e-07 1.458547430944660905e-20
2.442052803976206832e-07 1.430725855912147988e-20
2.492991962579621742e-07 1.404576253567477567e-20
2.544993669001418458e-07 1.377881192607378978e-20
2.598080087091505637e-07 1.350629295225908651e-20
2.652273843019001050e-07 1.326171681617415526e-20
2.707598034915774741e-07 1.304785553175580619e-20
2.764076242721238746e-07 1.282953328160058327e-20
2.821732538232404662e-07 1.260665701373157342e-20
2.880591495363635861e-07 1.238256156096706260e-20
2.940678200620401527e-07 1.220034734133849454e-20
3.002018263791485780e-07 1.201433228701118794e-20
3.064637828864218989e-07 1.182443711578404397e-20
3.128563585167423830e-07 1.163058089169622134e-20
3.193822778746794605e-07 1.146087063625519016e-20
3.260443223977498186e-07 1.130251260376390467e-20
3.328453315419097858e-07 1.114085135648540936e-20
3.397882039917656723e-07 1.097581799214961782e-20
3.468758988960387160e-07 1.080734217124322873e-20
3.541114371287900996e-07 1.066168267385445191e-20
3.614979025769648704e-07 1.052939205745675785e-20
3.690384434547817744e-07 1.039434197055153657e-20
3.767362736455517649e-07 1.025647485291499604e-20
3.845946740714744325e-07 1.011573194366574218e-20
3.926169940920150213e-07 9.972053256220025003e-21
4.008066529314494471e-07 9.862511857611012696e-21
4.091671411361836369e-07 9.752360046883564020e-21
4.177020220624713971e-07 9.639910562433433541e-21
4.264149333951678878e-07 9.525115476727701384e-21
4.353095886981630812e-07 9.407925862505576900e-21
4.443897789971527681e-07 9.288291771924939300e-21
4.536593743954246850e-07 9.195521583236626874e-21
4.631223257233517875e-07 9.101152305414889410e-21
4.727826662222939620e-07 9.004814564174814958e-21
4.826445132636152336e-07 8.906467299032345798e-21
4.927120701035718148e-07 8.806068593016374880e-21
5.029896276747910769e-07 8.703575654803223820e-21
5.134815664151342148e-07 8.594948363570376505e-21
5.241923581346918057e-07 8.477922605638691786e-21
5.351265679217394423e-07 8.358455789252298571e-21
5.462888560884340342e-07 8.236496995993898527e-21
5.576839801571111515e-07 8.111994245330980225e-21
5.693167968880005854e-07 7.984894472461067588e-21
5.811922643492474985e-07 7.860403243013336269e-21
5.933154440301126684e-07 7.823023215313921299e-21
6.056915029982475603e-07 7.784863471812909788e-21
6.183257161019673908e-07 7.745907748297340110e-21
6.312234682184671520e-07 7.706139441296502963e-21
6.443902565489342506e-07 7.665541601005310397e-21
6.578316929615289898e-07 7.624096924060057363e-21
6.715535063832384298e-07 7.581787746163495791e-21
6.855615452416269465e-07 7.537826011993962492e-21
6.998617799575219526e-07 7.492430758844672219e-21
7.144603054896799123e-07 7.446088599061650720e-21
7.293633439325544406e-07 7.398779780972398426e-21
7.445772471682273940e-07 7.350484140901223138e-21
7.601084995736810715e-07 7.301181094575176374e-21
7.759637207845197611e-07 7.250849628350778931e-21
7.921496685163543248e-07 7.216742778104186741e-21
8.086732414450379978e-07 7.188653223192407996e-21
8.255414821469749288e-07 7.159977743893398679e-21
8.427615801007607875e-07 7.130704118319392718e-21
8.603408747514409188e-07 7.100819869644373367e-21
8.782868586386884611e-07 7.070312260786264647e-21
8.966071805902247544e-07 7.039168288978217825e-21
9.153096489818525365e-07 7.019298191144631612e-21
9.344022350654977329e-07 7.001039438363508901e-21
9.538930763666716309e-07 6.982399823423178465e-21
9.737904801527938191e-07 6.963371401860728383e-21
9.941029269738606339e-07 6.943946063498458377e-21
1.014839074276977950e-06 6.924115528987216234e-21
1.036007760096290174e-06 6.903871346277615674e-21
1.057618006819863237e-06 6.892846436094603487e-21
1.079679025035155733e-06 6.881606933906028278e-21
1.102200217454704282e-06 6.870132985196201477e-21
1.125191182923687131e-06 6.858419699608732296e-21
1.148661720511079308e-06 6.846462084778531343e-21
1.172621833686156939e-06 6.834255044203990555e-21
1.197081734582119965e-06 6.824252509998805648e-21
1.222051848348640397e-06 6.828483157761709030e-21
1.247542817595201066e-06 6.832802053263168906e-21
1.273565506927127739e-06 6.837211037276467030e-21
1.300131007576241367e-06 6.841711988971858558e-21
1.327250642128089675e-06 6.846306826717506127e-21
1.354935969347784393e-06 6.850997508897106331e-21
1.383198789106513651e-06 6.848528320413354983e-21
1.412051147410816406e-06 6.829596796071940291e-21
1.441505341536755126e-06 6.810270376124881934e-21
1.471573925271165936e-06 6.790540823383435226e-21
1.502269714262290568e-06 6.770399728838046167e-21
1.533605791481965517e-06 6.749838508074325967e-21
1.565595512801760852e-06 6.728848397614257354e-21
1.598252512685446075e-06 6.657132623921430375e-21
1.631590710000193490e-06 6.521817652337214583e-21
1.665624313948987110e-06 6.383680124751034259e-21
1.700367830126775251e-06 6.269803905524130489e-21
1.735836066702964006e-06 6.185140753065408351e-21
1.772044140732870231e-06 6.098711598764327456e-21
1.809007484600815930e-06 6.010479605314250964e-21
1.846741852597615864e-06 5.920407167013460652e-21
1.885263327635283214e-06 5.843284399110304117e-21
1.924588328101797029e-06 5.766637571766331657e-21
1.964733614858841617e-06 5.688391956350215045e-21
2.005716298385508154e-06 5.608514203493330863e-21
2.047553846071028970e-06 5.526970268187394223e-21
2.090264089659632189e-06 5.448459226274913711e-21
2.133865232850655387e-06 5.385939698589873169e-21
2.178375859057226355e-06 5.322116066369762715e-21
2.223814939326781369e-06 5.256961127095598651e-21
2.270201840426781565e-06 5.190447110826828226e-21
2.317556333099087973e-06 5.122545668365409800e-21
2.365898600486535387e-06 5.053227859172979007e-21
2.415249246735278698e-06 4.982464139035976150e-21
2.465629305776556898e-06 4.910224347473499435e-21
2.517060250291636006e-06 4.836477694882512528e-21
2.569564000863774335e-06 4.761192749414864105e-21
2.623162935321090336e-06 4.684337423580591381e-21
2.677879898274294622e-06 4.634794509580924995e-21
2.733738210853367998e-06 4.587964786929533195e-21
2.790761680647362231e-06 4.540158235822345688e-21
2.848974611851537545e-06 4.491354480442929264e-21
2.908401815626141462e-06 4.441532719952530392e-21
2.969068620671231862e-06 4.390671719624497583e-21
3.031000884022188134e-06 4.340799070568221751e-21
3.094225002070299727e-06 4.294826314684356053e-21
3.158767921813268239e-06 4.247894605947549350e-21
3.224657152340404135e-06 4.199983941411355799e-21
3.291920776557395287e-06 4.151073900884753188e-21
3.360587463155620711e-06 4.101143638228785018e-21
3.430686478831130227e-06 4.050330749190377310e-21
3.502247700758530212e-06 4.009379095369134704e-21
3.575301629325065595e-06 3.967573224642476627e-21
3.649879401130294540e-06 3.924895318767340109e-21
3.726012802256924625e-06 3.881327187827170073e-21
3.803734281818498789e-06 3.836850262479117683e-21
3.883076965789671362e-06 3.791445586039522270e-21
3.964074671124946680e-06 3.750122913381427841e-21
4.046761920171917920e-06 3.714905270088483118e-21
4.131173955385185699e-06 3.678953016506027908e-21
4.217346754347208367e-06 3.642250829283967579e-21
4.305317045102397802e-06 3.604783065440077158e-21
4.395122321811146319e-06 3.566533755692738810e-21
4.486800860730377153e-06 3.527486597654603098e-21
4.580391736527399029e-06 3.494102229026478410e-21
4.675934838934057056e-06 3.466054166155670735e-21
4.773470889748303505e-06 3.437421044386561886e-21
4.873041460190417898e-06 3.408190659884749909e-21
4.974688988621215936e-06 3.378350554254157524e-21
5.078456798629854487e-06 3.347888009227092423e-21
5.184389117498959247e-06 3.316790041243544415e-21
5.292531095054933025e-06 3.292059350401406766e-21
5.402928822911421132e-06 3.271010623453613269e-21
5.515629354114167908e-06 3.249522837842285623e-21
5.630680723195706745e-06 3.227586835174593100e-21
5.748131966648366650e-06 3.205193266021361843e-21
5.868033143824293530e-06 3.182332585932221989e-21
5.990435358271363100e-06 3.158995051367644526e-21
6.115390779514361223e-06 3.141923670649284843e-21
6.242952665290280640e-06 3.126813506488507600e-21
6.373175384247493592e-06 3.111388157067421341e-21
6.506114439118449748e-06 3.095641047887745326e-21
6.641826490375737717e-06 3.079565467312716118e-21
6.780369380381544945e-06 3.063154563706495936e-21
6.921802158040842177e-06 3.046401342513915178e-21
7.066185103968877853e-06 3.037059452397598148e-21
7.213579756183641507e-06 3.028642476343733978e-21
7.364048936334194930e-06 3.020049929279500221e-21
7.517656776476103611e-06 3.011278148941931879e-21
7.674468746405434738e-06 3.002323396676352510e-21
7.834551681562928650e-06 2.993181855842906055e-21
7.997973811520162394e-06 2.983947065321675748e-21
8.164804789059909433e-06 2.980434390540343486e-21
8.335115719863147739e-06 2.976848444330352751e-21
8.508979192815351465e-06 2.973187698311595358e-21
8.686469310944774222e-06 2.969450592223246920e-21
8.867661723006240926e-06 2.965635533258760546e-21
9.052633655723731369e-06 2.961740895386988941e-21
9.241463946705460525e-06 2.958833634410606523e-21
9.434233078045507854e-06 2.961238011772861270e-21
9.631023210626452765e-06 2.963692542415830387e-21
9.831918219137519149e-06 2.966198272494583891e-21
1.003700372782309777e-05 2.968756269986102407e-21
1.024636714697694736e-05 2.971367625144463939e-21
1.046009771019771059e-05 2.974033450965525623e-21
1.067828651242156924e-05 2.978786876069348358e-21
1.090102654874811693e-05 2.987797186173743327e-21
1.112841275407612575e-05 2.996995443735591579e-21
1.136054204356616450e-05 3.006385569180088813e-21
1.159751335394722421e-05 3.015971564709190124e-21
1.183942768568491682e-05 3.025757516007404658e-21
1.208638814602910067e-05 3.035747593983162029e-21
1.233849999295991499e-05 3.048867945741838784e-21
1.259587068005002441e-05 3.065131799643248108e-21
1.285860990226280270e-05 3.081734903798394163e-21
1.312682964270588846e-05 3.098684334680990886e-21
1.340064422036001099e-05 3.115987316374020994e-21
1.368017033880326134e-05 3.133651223648734854e-21
1.396552713595173831e-05 3.151683585107878372e-21
1.425683623483782185e-05 3.175345097137512313e-21
1.455422179544767290e-05 3.201805985219454139e-21
1.485781056763987767e-05 3.228818825074348779e-21
1.516773194516794356e-05 3.256395129949925012e-21
1.548411802082977237e-05 3.284546653250532236e-21
1.580710364276750768e-05 3.313285393546612523e-21
1.613682647194163405e-05 3.342623599688652118e-21
1.647342704080390917e-05 3.382757325781289372e-21
1.681704881319432971e-05 3.424815975799524580e-21
1.716783824548750125e-05 3.467751933728729106e-21
1.752594484901419600e-05 3.511583499470831091e-21
1.789152125378522712e-05 3.556329354648248768e-21
1.826472327354459205e-05 3.602773865379657165e-21
1.864570997217935945e-05 3.662861731335168491e-21
1.903464373151484120e-05 3.724202979416185835e-21
1.943169032052405532e-05 3.786823754115067316e-21
1.983701896598084134e-05 3.850750745276206448e-21
2.025080242458659620e-05 3.919245966942839351e-21
2.067321705660148969e-05 3.993045460732097534e-21
2.110444290101173690e-05 4.068384349620774837e-21
2.154466375226480999e-05 4.145294744090272758e-21
2.199406723860509492e-05 4.224721427159278340e-21
2.245284490204357649e-05 4.306812791940479916e-21
2.292119227999577836e-05 4.390616513245558304e-21
2.339930898862263247e-05 4.476168309385122034e-21
2.388739880790956155e-05 4.571446381631469606e-21
2.438566976852025501e-05 4.670648178802412379e-21
2.489433424046230586e-05 4.771919241663097716e-21
2.541360902360242539e-05 4.875512455382304738e-21
2.594371544006925383e-05 4.982565116421598954e-21
2.648487942858407222e-05 5.091850805539029804e-21
2.703733164075913792e-05 5.203416101814002276e-21
2.760130753940449788e-05 5.324784966955576917e-21
2.817704749888540766e-05 5.450802701997348046e-21
2.876479690757332799e-05 5.579449060540485284e-21
2.936480627243396498e-05 5.718437263912614046e-21
2.997733132579673542e-05 5.863164708846407463e-21
3.060263313435129166e-05 6.010911046025178329e-21
3.124097821041789294e-05 6.170095055485002371e-21
